id,label_0,label_1,label_2,label_3
120000,1.3703530532538366e-09,1.9301898943177828e-17,1.0,2.8596092507826576e-13
120001,1.0,1.6815581571897805e-44,6.3017486826115616e-24,4.462407246487752e-32
120002,1.0,0.0,3.2397179716111176e-40,6.24278465856706e-42
120003,1.9875078859395422e-16,1.0,1.4578512357042828e-17,1.9140929863560375e-27
120004,1.0,0.0,3.168555641120719e-35,6.908401429121348e-43
120005,1.0,0.0,7.76493017731212e-23,2.706188262214467e-29
120006,1.0,9.90890805923956e-30,3.6440599470971265e-30,6.581856100803981e-20
120007,5.233170605086753e-31,2.7064490692401232e-27,1.0,5.442567565320516e-39
120008,1.0,1.0452190873664536e-32,3.0926182840083644e-20,4.2188569739599505e-29
120009,1.0,1.8736191527318582e-31,1.3566916622690535e-24,1.6746754349584103e-26
120010,1.0,4.378343038798248e-40,1.154601058727449e-19,1.9894461509881547e-27
120011,1.0,0.0,5.995094657590593e-33,0.0
120012,1.0,8.505160070996071e-33,2.1945475657676506e-31,4.2785710842944454e-26
120013,1.0,5.046120823236645e-34,3.519171139062375e-28,2.0554654887377936e-27
120014,1.0,3.886617889119415e-24,1.2271861620698297e-14,1.156337023258688e-20
120015,1.0,8.295698119190632e-39,5.3616154170370934e-20,2.1675008043286767e-30
120016,1.1406569499604011e-42,6.628889469116948e-38,8.424957031834947e-31,1.0
120017,3.2035254326143665e-25,1.3245462706345894e-24,1.0,3.051799219444362e-28
120018,1.0,2.8091126571020436e-35,5.1598864851421695e-23,1.462494023722443e-28
120019,1.0,0.0,6.64754164493973e-26,2.127656971890174e-35
120020,1.0,3.5441213207506685e-28,1.6745548563364521e-25,1.1562458779935975e-25
120021,1.0,1.7454491586259157e-20,4.396987194260373e-21,7.794780330693806e-17
120022,1.0,5.09464141169085e-37,1.864564944703182e-15,1.416188719254962e-22
120023,1.0,3.761059059603345e-20,4.543425482260693e-19,1.0642973635141229e-19
120024,1.0,1.401298464324817e-45,1.1955770960583572e-26,4.653910028690806e-31
120025,1.0,5.656100401015431e-30,3.8513138891219844e-17,9.347074747400208e-19
120026,1.0,4.0116936424071914e-30,4.1181947378166404e-26,7.734413862333027e-25
120027,1.0,4.9826810275076115e-40,5.568379310299804e-26,1.6703896954087885e-24
120028,1.401298464324817e-43,3.552291607063411e-42,3.271956604729642e-27,1.0
120029,2.848430639443628e-30,1.7483385769354904e-38,2.1567270929748592e-32,1.0
120030,1.0,3.011248868689135e-39,7.92095795339205e-21,4.121679785088207e-28
120031,6.888136702201636e-25,2.7582165283002677e-36,3.1546897656814954e-25,1.0
120032,1.0,5.1044134651959876e-27,2.760440935968465e-26,3.7634179809807824e-25
120033,3.5942331395742454e-31,6.456169904559357e-37,2.751377355575783e-27,1.0
120034,0.0,0.0,6.716054271131191e-34,1.0
120035,1.0,1.1089919991386444e-36,1.937004497717209e-18,6.649781097790136e-24
120036,8.032228185090442e-22,1.0,6.031587328698894e-34,3.9865010117176565e-33
120037,1.0,7.42688186092153e-44,8.058275677983243e-24,9.02272275187668e-28
120038,9.051810553309246e-30,4.790601412146496e-34,1.507622210454455e-23,1.0
120039,4.203895392974451e-45,2.802596928649634e-45,6.12894764918737e-29,1.0
120040,2.942726775082116e-44,5.605193857299268e-45,2.6563806684758883e-27,1.0
120041,1.0,2.8254129957853983e-22,2.4898306009871706e-18,1.1848319365505815e-16
120042,1.0,1.410803548294785e-20,4.909173709916267e-24,2.1781557704172434e-19
120043,3.977968562191014e-12,3.7695912983748585e-20,1.0,2.0498664874470617e-20
120044,1.0,0.0,4.9114287000246404e-36,1.251652456073044e-37
120045,0.0,0.0,3.968190336214898e-32,1.0
120046,1.0559056654999817e-35,2.62444985488002e-40,2.2912418032555566e-30,1.0
120047,1.0,3.1178778727350034e-39,5.1450395707032764e-26,1.3903913071020294e-24
120048,1.0,1.1561041603645697e-26,1.0327379933021756e-18,1.6064608336345665e-22
120049,3.363116314379561e-44,3.965674654039232e-42,7.636408620032158e-32,1.0
120050,1.5867044659266125e-36,0.0,1.0,0.0
120051,1.0,0.0,1.1597650827248648e-35,2.802596928649634e-45
120052,1.0,7.165259437632087e-41,3.464228209608896e-28,5.5020520356113565e-28
120053,1.0,0.0,4.6856945683890174e-29,6.812677004032421e-30
120054,8.882325708937632e-29,6.499150767820517e-34,1.0,1.7267420592984146e-33
120055,1.0,0.0,2.5978459591483613e-35,5.286848890043745e-37
120056,1.0,1.1921217681969486e-24,2.3054567341141376e-20,2.4558504479384956e-20
120057,1.3701347580514654e-26,2.0922271244583464e-35,1.0,1.8981988997743972e-41
120058,1.0,1.1109171926520355e-39,1.149560800402721e-39,3.390937694090266e-39
120059,1.0,7.006492321624085e-45,2.413981240743355e-18,1.3597834238607685e-26
120060,1.0,0.0,3.0576792133391526e-31,4.7077070324500813e-39
120061,1.0,3.8578775170710204e-29,2.175050482698931e-19,2.1807539859166836e-30
120062,1.0,3.291650092698995e-42,1.2587635861535963e-36,1.1282871278964202e-38
120063,4.491092339219189e-34,3.4189561173186148e-31,1.0,2.802596928649634e-44
120064,1.0,1.0209612646946932e-22,1.1082305490233302e-14,1.0733272273566826e-21
120065,1.0,3.222622130346355e-39,6.339160017366353e-34,7.522739106092909e-35
120066,1.0,1.9388284762043282e-20,9.06109895435262e-16,4.013147659917256e-15
120067,1.0,1.1922412127174948e-37,6.4495611504810715e-18,3.107776479805014e-22
120068,1.0,3.509378242891928e-39,3.388835781110795e-21,2.8924129403953e-24
120069,1.0,0.0,3.771465841328234e-25,1.778508953261943e-37
120070,1.0,1.4445627405366977e-35,1.4344952948004805e-15,2.5432244495601244e-24
120071,1.0,2.305337527133939e-24,4.1309108623322583e-17,7.346445777979614e-23
120072,1.0,2.684991315498518e-32,3.5120203620764694e-22,1.1316998546300635e-25
120073,1.0,5.070721027181226e-35,4.1528297007770876e-30,1.9130410193462888e-28
120074,1.0,6.493089430382837e-31,2.3731202697796886e-20,3.820631331005578e-23
120075,1.0,1.0231576014895077e-27,2.962942536471619e-20,1.3995797736699488e-19
120076,1.0,1.1929442663899146e-18,2.7804285540611318e-09,2.4895215759230643e-22
120077,1.0,0.0,1.1328838362411871e-24,1.657656507752742e-31
120078,1.0,2.0393724373065617e-31,9.63824637309387e-23,4.899628168987386e-18
120079,1.0,1.3098117995592635e-35,2.7866020489904832e-21,7.18010805540115e-28
120080,1.0,5.030661486926093e-43,1.093236799561915e-28,2.245711215215346e-35
120081,1.0,7.987401246651457e-44,2.7313459948277144e-31,3.0267573302638984e-35
120082,1.0,2.525789791553004e-26,7.004834868063243e-25,4.560135102653084e-24
120083,1.0,1.7846092110023848e-25,6.679316099385417e-26,8.598446340054256e-21
120084,1.0,5.3291380598272793e-42,6.3304206210727245e-24,3.397590330568668e-26
120085,1.0,1.401298464324817e-45,6.579659887343496e-31,4.6995247343261593e-32
120086,1.0,2.4981328790319195e-28,1.782869190921455e-23,7.057919586350667e-24
120087,1.0,6.367245952361981e-35,3.2219270234908484e-29,9.040254973642923e-29
120088,1.0,0.0,9.78881349374744e-34,3.0603966036299485e-32
120089,1.0,7.679061998162374e-16,1.8525406767421967e-15,6.500091697531074e-12
120090,1.0,0.0,5.800950363257089e-31,1.5336435372685887e-38
120091,1.0,0.0,1.0241442237839513e-22,4.5678325025977996e-38
120092,8.667031001848994e-42,1.2611686178923354e-43,1.7958312799995034e-23,1.0
120093,1.0,1.723875969559987e-29,7.166540832721875e-19,4.458739781279151e-21
120094,6.486703637577609e-38,1.0486481501766524e-35,4.273960161849661e-31,1.0
120095,1.0,8.919552880315992e-26,9.457813058141927e-23,1.2610933168115737e-23
120096,1.0,4.902148450576551e-27,2.303527275881751e-16,7.726581313681047e-22
120097,1.0,6.783638524462024e-28,2.603744604448441e-16,1.7496698800132102e-19
120098,1.0,2.802596928649634e-45,1.2855614156628882e-27,1.6133281625126118e-28
120099,1.0,3.1669345293740866e-43,2.6283710219630718e-33,4.372430568213691e-37
120100,1.0,1.0131387897068427e-42,2.913631343503631e-16,7.54907376599047e-27
120101,3.363319513462457e-23,1.8607573778488332e-29,4.522823054686961e-22,1.0
120102,3.924149584282325e-37,1.8925564372532663e-29,1.0,1.3312335411085762e-41
120103,4.6185540166392144e-17,4.285606193869114e-21,1.0,3.1637676811559393e-23
120104,1.0,2.6726619585791384e-21,5.680880994161615e-15,7.937379730262387e-14
120105,1.0,0.0,1.5821525104158752e-37,3.1334743246429386e-39
120106,4.458714929025388e-17,1.957794338245234e-21,1.0,1.1604132082887505e-24
120107,1.9293660252751523e-24,1.1994615051412031e-31,1.0,2.514656837953677e-26
120108,1.0,2.9393575492562006e-20,3.468872630114561e-19,1.2503398500346733e-15
120109,1.0,1.0387097961877192e-37,6.997358367857986e-17,6.581353330087914e-20
120110,1.0348697171305923e-29,1.1257231853245026e-33,1.0,2.933313615488963e-32
120111,1.0,1.478650139555547e-41,1.3622492418724013e-19,1.3023287543517179e-27
120112,1.0,8.828686272944638e-28,1.7279782801393574e-21,3.494170850550244e-20
120113,1.0,0.0,2.0996531888059948e-29,1.0334014253711332e-38
120114,4.092346848884906e-30,1.461926875616162e-33,1.0,6.47094214634174e-36
120115,5.9555184733804726e-43,0.0,3.619254581919444e-34,1.0
120116,1.0,0.0,3.2994113981253003e-31,1.9998294186019624e-30
120117,1.0,0.0,4.8303057266023173e-29,1.239704701178398e-32
120118,1.0,0.0,2.0269388515222503e-32,2.1307233604521357e-39
120119,1.0,2.7020924530649874e-22,9.901260115211748e-18,7.847936161438231e-20
120120,1.0,3.9928802261322697e-17,1.609768497971495e-13,1.663678639224641e-19
120121,1.0,1.1509443023765489e-38,7.809983655565289e-26,5.2919230060651e-26
120122,1.0,1.8501305421631623e-32,3.7663568929328055e-20,2.5816601194452077e-23
120123,1.0,4.889823237260475e-34,1.051066328292211e-14,1.1822463758784768e-21
120124,4.426921739310222e-24,1.2577172534058665e-36,1.0,3.745779760108822e-36
120125,1.0,6.100716939242203e-31,1.6828050149913284e-15,2.6307630189261793e-22
120126,1.7005977182016352e-10,1.0,4.915114611328379e-16,3.60856694043013e-21
120127,1.0,5.666415985372276e-25,1.5634355789162502e-12,5.578327690238037e-19
120128,1.0,0.0,3.7133698775922313e-29,6.5841521748643e-39
120129,6.434342158640263e-41,1.2446753349672323e-40,5.686393864685839e-28,1.0
120130,7.230700075916056e-43,2.9847657290118604e-43,1.4299431165603873e-24,1.0
120131,4.564400090122144e-16,3.830543154482197e-29,1.0,1.2591017581915995e-18
120132,3.33090486545724e-21,5.0376477547127424e-23,1.0,3.4126387817125125e-22
120133,1.0,0.0,7.021247702983345e-36,6.142788000152841e-40
120134,1.0,5.7873626576614945e-43,2.209480479829167e-18,8.554159904588606e-26
120135,5.397337341037167e-22,2.1110124283404314e-26,3.1914914088090266e-22,1.0
120136,1.0,1.1656609546557718e-18,1.2599306770414917e-14,2.992938773657255e-16
120137,1.0,5.038475732709211e-30,1.9615211798155763e-17,3.3328817489268245e-17
120138,1.0,3.8874821997299075e-41,1.75875453346419e-22,3.9463113451071105e-27
120139,4.7069615416670605e-42,2.6064151436441598e-43,2.3615797274465007e-27,1.0
120140,1.0,9.938653097431185e-32,6.7347757043328234e-21,1.601042607249117e-27
120141,2.802596928649634e-45,5.463662712402462e-42,4.0508018316454893e-29,1.0
120142,1.0,1.595538155305431e-33,2.921701610312165e-23,9.064552959570407e-24
120143,1.0,4.564159060175015e-30,3.733630285050846e-26,4.0046859119429383e-25
120144,7.094315820839719e-29,4.2372988678094136e-26,1.0,7.964973867216937e-31
120145,1.0,1.6918553467211478e-37,3.591240583509662e-26,1.1879410727559693e-31
120146,1.1639467134984618e-24,4.7016167729070635e-27,6.39305878018826e-23,1.0
120147,3.6305529736832855e-26,5.181621023030638e-24,1.0,2.07047194967847e-28
120148,3.122904244541421e-30,9.304173387608201e-40,2.991725693022849e-33,1.0
120149,4.073816092627809e-28,1.0,1.6722040816537726e-27,2.1630082120833466e-37
120150,1.0,1.420883566753893e-25,3.8203913032250956e-19,6.741542671822489e-19
120151,4.0386578653853375e-37,1.394291972003193e-42,6.702694043150127e-34,1.0
120152,1.0,1.5736737767091442e-34,5.795208906543718e-28,7.429868134251099e-23
120153,1.0,2.5842231132777727e-11,1.604157185275599e-16,5.65125529346195e-20
120154,1.0,0.0,5.060544186106988e-25,6.455893967936378e-31
120155,0.0,1.2611686178923354e-44,2.6284913264630387e-33,1.0
120156,1.0,0.0,1.3924270119029924e-35,6.32279319568615e-39
120157,5.797143720942482e-40,1.4910011488132174e-31,2.8434733995864363e-27,1.0
120158,1.2147562382979442e-27,5.268102065413528e-31,1.0,6.995702323448784e-41
120159,1.0,9.80908925027372e-45,2.2251090695960027e-35,1.5167263559528335e-36
120160,0.0,6.9604092203263e-39,5.347465595896654e-33,1.0
120161,1.0,1.4692663152328175e-20,3.157780082997083e-20,5.647591141842282e-20
120162,1.0,9.02677647329775e-30,2.3353138829477245e-19,7.876310063585261e-27
120163,1.1210387714598537e-44,1.1210387714598537e-44,4.091472657246087e-30,1.0
120164,1.0,7.088750316634677e-27,5.4883743191912595e-24,6.70720060675175e-25
120165,7.199355694931242e-11,5.60858117490731e-20,1.0,1.303463173035974e-14
120166,1.0,6.193926588296306e-32,1.4876621665136615e-29,2.5384238919881843e-26
120167,4.91366021533664e-28,6.480907986974381e-18,1.0,2.3472598454846706e-30
120168,1.0,1.2539572602370165e-20,2.5524279074324273e-17,3.204258017447942e-18
120169,1.0,1.1727955172423242e-36,2.520299411505911e-37,1.574461357924195e-33
120170,1.0,8.019099954109589e-28,3.026953391186152e-20,1.062147475434644e-27
120171,1.0,0.0,1.964520524906652e-28,2.7152769766630832e-37
120172,1.0,5.184804318001823e-44,3.0177614873799925e-37,6.390328494914592e-38
120173,2.463617837108725e-29,1.3426513209958948e-39,1.0,0.0
120174,1.0,0.0,5.092263297029793e-25,4.720273972859699e-33
120175,1.0,0.0,1.1265382827500899e-35,0.0
120176,1.0,2.3652166454722506e-39,1.2739478407293363e-19,6.26986016380936e-23
120177,1.0,9.357493942230095e-26,5.1858434142786964e-20,1.7716184713324512e-19
120178,1.0,1.5084669227117658e-24,1.6388756099456746e-16,6.329663595438195e-19
120179,1.0,0.0,8.62478599333914e-30,5.924689907165327e-42
120180,1.0,1.4375074571926072e-31,2.324016901231879e-13,4.8574088150878456e-23
120181,1.0,1.1210387714598537e-44,8.407790785948902e-45,2.1298335359272895e-41
120182,1.2583660209636857e-42,0.0,5.962311968335519e-36,1.0
120183,1.0,3.22525836512132e-37,8.54268378790363e-18,1.9716701896232344e-18
120184,1.0,0.0,2.802596928649634e-45,0.0
120185,1.0,3.9109035022626325e-39,1.3492108236229056e-20,7.582857293854765e-23
120186,1.0,1.403040461606396e-16,3.409279554732181e-16,8.223552352591094e-15
120187,1.0,2.4384670339887578e-36,2.087757117003307e-25,1.2582669324722327e-32
120188,1.7252407326072238e-33,2.1152078566775445e-30,2.985148766007527e-25,1.0
120189,1.0,0.0,5.057314192685861e-35,2.0944288894470444e-37
120190,4.276484485570378e-25,4.436253174958081e-24,1.0,6.695947807602361e-34
120191,1.0,4.838543467467161e-41,1.8146651220496879e-16,5.101009730686673e-26
120192,0.0,0.0,4.215024166483614e-31,1.0
120193,1.0,8.74934970093742e-23,1.968020946208071e-08,1.4917700745070402e-15
120194,1.0,9.358712693696702e-10,1.958459707341459e-13,1.3001816774010601e-16
120195,1.0,8.47870859546247e-37,3.2272129990934214e-16,6.897892446408891e-25
120196,0.0,0.0,3.543597056353385e-34,1.0
120197,1.0,6.910604818096404e-20,1.2524032646458322e-13,2.340804857077234e-14
120198,5.51393681714735e-38,7.006492321624085e-45,5.41302539109562e-38,1.0
120199,1.0,1.8232890424183697e-17,1.0616770592004887e-13,3.0654706813866735e-15
120200,1.0,0.0,0.0,1.4950593445727906e-40
120201,1.0,0.0,5.170992478187465e-26,1.0129344803907442e-38
120202,1.0,0.0,4.8143278472628826e-33,2.1726533184359015e-27
120203,4.057015345892978e-08,1.0,2.2539926197197302e-13,1.0966136039865563e-17
120204,0.0,0.0,1.125417717505407e-34,1.0
120205,1.0,2.8123844688442274e-34,2.71344422459999e-22,2.334635149004297e-28
120206,1.0,1.9944089257874506e-26,1.132838489681376e-09,4.050681164569729e-20
120207,8.540751079573997e-28,1.8814612635142485e-24,1.0,4.359671943696931e-30
120208,5.4598580861783304e-36,3.8198006049417903e-38,2.251075208307733e-32,1.0
120209,1.0,9.863052469407728e-37,3.4606664297513638e-18,5.205406535177732e-27
120210,1.0,2.7636715534499033e-29,6.02147685539353e-25,1.407767121016001e-26
120211,1.0,2.2990333452098654e-23,7.183538877321957e-19,3.2376860936768103e-21
120212,3.546168367358214e-18,2.275894559179457e-21,1.0,3.2856298422563147e-18
120213,1.6097506638127317e-20,5.026243034833781e-24,2.773114925648356e-20,1.0
120214,1.0,0.0,3.295332741295214e-33,6.996206790895941e-40
120215,1.0,1.3968945756150142e-37,2.759817165778077e-28,6.798413537947128e-33
120216,1.0,8.45338953657316e-22,3.877381101002964e-22,3.87353549875332e-23
120217,1.7411479055053647e-26,2.161826176319096e-24,2.7084300479815626e-21,1.0
120218,1.0,3.856560034002918e-18,4.751684098848315e-21,5.35397978518092e-17
120219,6.223721843606598e-32,1.1398352523453474e-27,1.0,4.574847660549127e-36
120220,1.0,1.8267036207688753e-36,3.767307504402388e-19,1.0178388540493252e-29
120221,7.163356210587611e-23,2.202515384025657e-38,1.0,1.778557426978421e-36
120222,0.0,0.0,2.312142466135948e-43,1.0
120223,8.492932909366604e-34,8.407790785948902e-45,1.0,0.0
120224,1.0,2.258152382249454e-33,4.19128983581077e-18,2.3071260799099105e-22
120225,5.403235747949256e-27,3.6126923387882306e-32,1.0,5.21696324162592e-32
120226,1.0,0.0,3.662267339114708e-26,5.17001524327809e-30
120227,1.0,3.2638280807224233e-35,6.927461676401516e-30,3.06194103863772e-30
120228,2.814128773891153e-30,1.8186407012684984e-26,1.0,1.0574675504107006e-24
120229,1.0,8.954297187035581e-43,9.264781331007045e-28,9.656113956864028e-34
120230,1.0,1.888946137045482e-33,9.238571928172863e-25,4.388599862610717e-25
120231,1.0,6.132881851355804e-20,3.596282343101831e-13,5.238885649757165e-15
120232,2.425527751516406e-19,8.302154547597763e-32,2.0882348708890316e-25,1.0
120233,1.0,2.8412657597726775e-39,1.3399084739471535e-25,1.0679817913116735e-27
120234,1.0,1.3853937959398624e-31,3.988337595777373e-20,5.5683765369606836e-27
120235,1.0,9.524370687456195e-28,2.1637916152984988e-15,1.6519602041311495e-19
120236,1.0,3.2817526655935305e-37,1.7772009791928395e-21,7.5537188624973e-25
120237,1.5263531418780924e-39,2.6624670822171524e-44,2.6088297714747826e-35,1.0
120238,1.0,2.220829570066974e-25,7.2394262570046905e-22,1.2266248378851776e-21
120239,1.0,2.6764800668604006e-43,2.4348177955765202e-33,2.675713276340722e-35
120240,1.0,1.2883564688001246e-17,1.4274550237582811e-13,3.502697535229943e-13
120241,1.0,0.0,2.7084638805693253e-34,2.290760473258355e-38
120242,1.0,1.2115787266013854e-24,2.1368417681593886e-26,1.134423396905339e-24
120243,2.0551615892647303e-33,1.688704779357837e-41,1.0,0.0
120244,1.0,5.605193857299268e-45,2.176574680321544e-29,3.132671506448272e-33
120245,6.750169927358237e-32,2.1657128446953132e-25,1.0,6.167662449193071e-39
120246,1.0,6.747402325577761e-21,3.177247520219577e-19,1.2165146745470365e-18
120247,1.0,1.401298464324817e-45,1.731798462942156e-29,8.041253796837947e-34
120248,1.0,0.0,2.3630749704037804e-35,8.772877801092076e-38
120249,1.0,3.773237138530434e-39,6.024335095668372e-22,2.0476584790262113e-24
120250,1.0,5.495714522388107e-29,6.97130707657847e-23,4.594836336567287e-22
120251,1.0,0.0,1.2837309244664292e-39,1.020775866337413e-40
120252,1.0,0.0,6.42818058835303e-29,2.285812180095162e-37
120253,1.0,2.988969624404835e-42,2.842991277999747e-23,3.613976037394046e-31
120254,1.1290438816461878e-17,9.652542207858385e-19,1.0,1.6502742353637184e-24
120255,1.0,6.364802912350763e-32,1.494285594870511e-25,1.794016742145314e-23
120256,1.0,0.0,1.0360175379934075e-32,2.7437423931479918e-42
120257,1.0,1.1545991970571701e-37,4.8286071878938643e-23,4.5617371656541285e-31
120258,1.0,0.0,2.3657158967247843e-29,7.817844132468154e-42
120259,5.729057363859668e-32,7.679124297989626e-30,1.0,3.9642389854230056e-33
120260,1.0,3.042779485434908e-41,1.2056535923422703e-25,1.703955973744938e-35
120261,0.0,0.0,2.4368440164762136e-40,1.0
120262,1.9907194314226377e-29,7.0129409924859665e-31,1.1170986284588555e-19,1.0
120263,8.02050988017141e-35,4.3619345352233936e-30,2.77848424176405e-27,1.0
120264,1.0,3.4794118505561225e-32,1.2683301689838902e-23,2.3147814506865684e-19
120265,1.0,3.287046608147871e-33,5.596361069424608e-26,1.7421263395468716e-24
120266,1.0,1.0811101164258187e-21,7.746400025590682e-18,6.806765863122296e-19
120267,1.0,1.9384112621865974e-23,2.6930229689674528e-17,1.3980368556453386e-20
120268,1.9194091511666814e-19,6.7306932658433605e-28,9.581256945891301e-20,1.0
120269,1.543823798183866e-13,1.0,5.188206635142745e-13,5.561505835108429e-17
120270,3.25430637361531e-19,2.9480672350308235e-23,6.507497885075586e-23,1.0
120271,1.0,7.99870013821195e-26,2.0755946469210745e-22,3.444802950603104e-21
120272,1.0,0.0,1.4376711720443166e-17,8.202954432395077e-33
120273,1.0,5.605193857299268e-44,3.2000577183744896e-17,1.7536394871246603e-26
120274,1.6952883100288065e-34,5.224895218896512e-30,1.0,0.0
120275,1.0,4.778427763347626e-43,1.958560345134918e-32,1.827749325734893e-36
120276,1.0,4.692194892507528e-26,1.4918929232357135e-18,7.81754502874515e-21
120277,7.965980278460337e-30,1.0,6.160416415271902e-14,1.567859893861474e-36
120278,3.02088882605234e-18,1.59960552138463e-15,1.0,3.8906923495102117e-19
120279,1.0,1.004969219659829e-40,9.383921283212927e-39,4.741931354247646e-33
120280,1.0,0.0,8.099255251724341e-26,4.639253777045657e-30
120281,1.0,0.0,7.932402172325397e-25,3.1216994568713763e-31
120282,1.0,9.280839734883346e-28,6.987613612730037e-12,1.2684584633892813e-19
120283,1.0,1.867344407968207e-34,4.962756310368451e-26,2.0018199411913076e-24
120284,1.0,2.0167953735798397e-18,2.1334583066661382e-14,1.2966172222093957e-21
120285,6.145857771507452e-27,2.053703378394476e-26,1.0,1.9634481129468375e-29
120286,1.0,0.0,1.3077120452244583e-32,0.0
120287,1.0,1.522903696925658e-17,2.029416614480182e-15,5.015858401910024e-14
120288,1.0,8.940257887117768e-20,4.2450343240574284e-10,3.7467506311048004e-14
120289,3.21234377664351e-28,1.3649413462200184e-30,7.199409755396454e-30,1.0
120290,1.0,8.519894663094888e-43,1.6407725438495084e-29,1.1576381966671951e-29
120291,1.8292819202601312e-38,0.0,3.026804682941605e-43,1.0
120292,1.0,2.1019476964872256e-44,2.4431081399262627e-25,4.647973846166046e-28
120293,1.0,0.0,1.353236500903495e-35,3.629363022601276e-43
120294,1.0,0.0,2.950008081254189e-19,1.386407017188791e-26
120295,1.0,3.9644751314717085e-21,7.236817890769227e-18,3.977710130744741e-16
120296,1.0,1.1550126089929225e-12,8.525513890068941e-21,1.882710058029484e-17
120297,1.0,0.0,6.792103790772882e-36,4.75040179406113e-43
120298,1.0,2.34940004957557e-38,1.2817798040688352e-29,1.375247892608932e-30
120299,1.0,1.530594233337504e-36,2.365058342112053e-28,3.916205509143003e-31
120300,1.0,5.131902408693531e-35,1.2531026307990586e-18,9.276040849018598e-25
120301,1.0,4.203895392974451e-45,1.0024563161665551e-29,1.637523208973579e-34
120302,2.054484198982832e-21,1.0,5.3861933864643675e-28,1.277093394030462e-38
120303,1.0,2.3970378370781507e-29,3.2671025022623357e-21,9.175983703952628e-25
120304,2.7008350825858745e-37,1.9244005152701493e-28,5.104482574957963e-23,1.0
120305,1.0,0.0,3.4908601663629334e-31,5.885453550164232e-44
120306,2.2420775429197073e-44,5.605193857299268e-45,2.6493231493521954e-30,1.0
120307,1.0,1.507070013840365e-38,1.675911888001238e-30,2.7547473959407205e-28
120308,2.8006841674562185e-33,4.47918771858564e-25,1.0,1.6506955828554776e-32
120309,1.0,0.0,1.5993793555061423e-23,1.0067441434001625e-30
120310,1.0,2.5931581703292286e-31,8.28543921353133e-27,3.057801861598531e-27
120311,1.0,0.0,4.203895392974451e-45,0.0
120312,1.0,1.8241739070979744e-39,1.419806056713071e-24,4.9448085291573635e-24
120313,1.0,1.5414283107572988e-43,4.062143627647421e-37,9.821700936452643e-42
120314,6.093729971246992e-19,1.440896625356502e-21,1.0,1.9865966760056756e-25
120315,1.8118789143719885e-42,2.75663433901978e-41,3.006664297676381e-35,1.0
120316,1.0,1.3737200754178615e-33,4.2374407754257296e-20,6.000630096637417e-26
120317,1.0,1.0767172467330836e-16,5.178401038696985e-16,1.2605351091647405e-16
120318,1.0,2.1619750875041053e-31,4.123483865692496e-15,1.8315733369920553e-22
120319,1.0,1.9794602042265069e-28,3.75829811716244e-09,1.2366123046958781e-15
120320,8.157463420033206e-13,4.004211359753327e-18,1.0,1.2142429263922362e-18
120321,1.0,1.1763645839838806e-32,3.280733101458001e-33,2.021370534782405e-33
120322,2.368194404708941e-43,0.0,2.1061515918802e-42,1.0
120323,1.0,1.2825776205482976e-28,5.603205803492842e-23,1.434172318202413e-23
120324,1.0,5.163613277263367e-36,2.201332133237338e-22,3.022475732334851e-28
120325,1.0,0.0,6.398501255593639e-30,6.973780410272887e-38
120326,1.0,6.165713243029195e-44,1.393975398017288e-25,7.11099144482619e-33
120327,1.0,6.319856074104925e-43,1.780504366071867e-30,7.726871836164187e-40
120328,1.0,0.0,1.2051282256164607e-27,1.5977032239419348e-37
120329,0.0,0.0,4.232218661743139e-37,1.0
120330,1.0,0.0,4.716305175619424e-37,3.3911422836660573e-43
120331,1.0,3.20493133065889e-25,1.0515571333378486e-26,1.616210918527495e-28
120332,1.0,5.375380909149998e-42,3.674942760376845e-28,6.882975102098601e-29
120333,1.0,5.0270346725293885e-22,1.4918977829218123e-19,1.1004281473813446e-15
120334,1.0,3.4110243367244065e-15,1.0096445536989917e-14,4.815498821284794e-20
120335,1.0,1.6548134571158431e-31,2.300316380140553e-21,1.1428108967350916e-16
120336,3.600962357315807e-36,6.413897410402969e-30,7.134254500705284e-24,1.0
120337,1.0,2.0356662791246618e-41,6.720908228933782e-31,1.3944086386064315e-29
120338,1.0,1.4299082751190184e-12,3.2126872273607887e-09,3.699315769619023e-14
120339,1.0,1.6022923032847614e-23,4.5025138131760123e-13,7.466319085547616e-16
120340,1.0,9.66839222916582e-18,1.9187216052096723e-11,5.243302680923989e-08
120341,1.0,1.7932910397191137e-16,2.075980146408009e-17,1.2976697624442202e-12
120342,1.30170551999817e-38,2.7654954778849074e-37,5.54385405616479e-27,1.0
120343,1.0,1.1349099671192876e-36,2.992645063611548e-29,8.89501684097329e-27
120344,3.039476194801866e-18,1.0,4.978263894866997e-12,7.20609017442777e-29
120345,1.0,9.802070063914204e-21,4.399826423334696e-12,6.436534710194586e-18
120346,1.0,1.1390099913641775e-26,1.115124919487398e-12,3.7347990478351125e-18
120347,1.0,2.466285297211678e-43,5.839012541704325e-13,8.686287450199238e-25
120348,2.607676312262052e-41,3.0183234273747522e-31,1.0,0.0
120349,1.0,0.0,3.208091819045263e-22,5.663108604295485e-33
120350,1.0,2.802596928649634e-45,1.1796332194117587e-29,2.5606997430634126e-38
120351,1.0263497904995612e-30,1.0356289608443873e-27,1.0,2.2944861054854555e-40
120352,1.0,2.4532166756295077e-37,3.322028117796667e-25,1.9137382963122714e-24
120353,1.0,1.6631822601000795e-13,4.1090183556038995e-13,5.95025888544018e-17
120354,1.0,6.20168132452868e-32,7.381286419392988e-21,2.4148821497733507e-27
120355,8.391133835847321e-35,1.413502253820512e-35,3.2856066275681135e-32,1.0
120356,1.0,1.3071829490726091e-25,9.180868732996818e-21,1.2244334554967657e-19
120357,1.0,2.2670740080376788e-28,2.2987701812118837e-23,7.318063648082368e-21
120358,1.0,5.638825020443064e-42,1.6775786611142033e-33,9.577900419851151e-34
120359,1.0,6.842010786709203e-35,8.568715497822797e-21,1.1307762710733727e-25
120360,3.910867252634337e-28,1.6466235190205568e-28,1.1090458993565602e-23,1.0
120361,1.0,1.0571897279716648e-38,8.949787135774755e-33,7.898272243010316e-35
120362,1.0,4.2837185838671393e-17,1.1192672189194643e-16,7.86435101139472e-22
120363,1.0,2.5223372357846707e-44,1.2824521226261267e-33,4.654843753241023e-34
120364,1.0,0.0,2.5711537098669687e-38,2.006098881527408e-41
120365,1.0,0.0,4.178649463066802e-24,1.8332394597600137e-34
120366,1.0,5.465373154248782e-16,6.304632922497777e-13,7.782221395080668e-11
120367,0.0,0.0,6.952741105593915e-31,1.0
120368,1.0,2.977293164821002e-38,2.1988927657772165e-27,1.667456039918259e-30
120369,1.0,1.3940597383414125e-26,9.198347713400417e-24,3.440253432030903e-17
120370,1.0,1.5657970031557845e-37,6.108866274828235e-24,1.9999578766246202e-31
120371,9.267314509128088e-23,0.0,1.0,3.773878933227095e-40
120372,1.5841329822953725e-15,7.387610931204174e-17,1.0,7.928994104084569e-15
120373,1.0,0.0,5.079116616117704e-30,1.981733776452991e-36
120374,0.0,0.0,1.946791726621789e-39,1.0
120375,1.0,6.165713243029195e-44,4.040685825871732e-25,1.0120743802161696e-28
120376,1.0,3.0828566215145976e-44,2.5063392138628066e-30,4.872596849685529e-35
120377,1.0,1.3124822570185274e-28,5.624668076133557e-14,7.014649751382795e-17
120378,1.0,7.699312768353699e-28,1.0224488627714329e-13,1.8544308505646306e-20
120379,1.0,3.9658387023688927e-35,2.9143387607711953e-19,2.60765436738235e-21
120380,1.0,2.5723700369340026e-38,6.945487899198494e-28,8.006918561939588e-32
120381,1.0,4.816144077870399e-34,5.311210674457053e-28,9.225533382449361e-27
120382,3.5648326740416765e-32,1.4904893385728693e-31,1.4807238433145973e-25,1.0
120383,1.0,1.2182450903442641e-21,6.2561531691557294e-21,1.1381980413311284e-18
120384,1.0,5.605193857299268e-45,5.301824889506594e-18,8.749094329097919e-28
120385,1.0,7.122053033925744e-37,2.1513148177494703e-22,3.4087564717927965e-25
120386,1.0,9.27478531137283e-36,3.6806237421888756e-21,2.9690485849792433e-30
120387,1.0,1.7952690453159353e-31,1.2705479725328285e-23,1.027749981441899e-27
120388,1.0,4.141727752844306e-28,3.307760797953767e-27,2.573409226022275e-24
120389,1.0,2.4760213890443464e-25,5.526912477885149e-22,1.455369231606755e-22
120390,1.385034447316816e-31,1.0935707745589985e-35,1.0630661214486252e-30,1.0
120391,1.0,1.416690157536155e-31,5.781178800720707e-16,8.379279386413576e-17
120392,1.0,3.4228458206423277e-38,3.2101677951068205e-14,3.9143655291186915e-25
120393,1.0,6.165712682509809e-38,1.8671007290472264e-28,3.216954452930373e-28
120394,1.0,5.885453550164232e-44,1.7175505860747468e-19,2.1090957043411784e-27
120395,4.249283450233932e-38,2.8154874034157543e-26,1.0,1.401298464324817e-45
120396,2.3455703384872846e-28,2.4220623170510977e-25,1.0,9.009497106008742e-32
120397,1.0,5.816902029289462e-40,4.022526711289326e-23,1.5349882291300699e-25
120398,1.0,0.0,4.18021821395103e-21,1.5563504062584808e-32
120399,1.0,0.0,1.8654120619469262e-22,1.7375612064476272e-30
120400,1.0,1.2508511728030729e-21,2.0328307925323273e-14,4.8396209104428746e-21
120401,1.5414283107572988e-44,0.0,3.4352985995753966e-38,1.0
120402,4.3484755726797e-12,3.1874865160513854e-12,1.0,4.817169883472583e-13
120403,9.013739733133572e-29,7.369368776556775e-33,1.0,1.74363567915937e-41
120404,1.0,0.0,4.971623599981201e-26,2.0271099507014944e-39
120405,1.0,5.0953505781380857e-26,8.371856460507963e-27,7.822033136113991e-25
120406,1.0,2.8370063579447773e-26,4.2157715514336813e-20,9.857909440464222e-20
120407,1.0,7.585360812568082e-34,3.0008231856752357e-26,7.636162006959728e-28
120408,1.0,5.423392838896004e-26,4.302960459276348e-18,3.267518722744466e-18
120409,1.0,0.0,1.1009652026739287e-23,1.0550978684223672e-32
120410,1.0,0.0,2.117267473243462e-29,5.105785097598547e-40
120411,1.0,5.19746619045799e-21,3.4022341844854648e-18,8.697194508883634e-18
120412,1.0345910001601592e-26,1.6604944275918982e-28,9.723672418114949e-29,1.0
120413,1.0,1.3152760456625945e-25,1.156185970910379e-22,4.428226893900692e-22
120414,1.0,0.0,2.2176831283630205e-30,1.1804734445257264e-39
120415,1.0,3.75420369385308e-37,4.521016993039456e-35,3.5421030461889984e-38
120416,3.985866714965953e-31,1.401298464324817e-45,1.0,2.802596928649634e-45
120417,1.0,9.959772370814866e-21,1.3987865033266073e-16,2.4255034613577186e-16
120418,1.401298464324817e-45,7.034518290910582e-43,6.874068795176432e-32,1.0
120419,1.0,1.0976012576379447e-17,9.77112379722811e-13,2.9074518400479255e-13
120420,1.0,3.0372275043066405e-18,5.189761065338416e-09,1.614973779706652e-11
120421,1.0,3.195707593783893e-29,9.42081583105778e-19,4.445255283266116e-21
120422,1.0,6.015502983729969e-19,3.4202883360685268e-15,3.0219192118541727e-15
120423,1.0,3.699427945817517e-43,2.3512638257445486e-24,2.4357735275850365e-34
120424,4.3225314285170806e-36,5.048596762022925e-37,3.394942694784408e-36,1.0
120425,1.0,1.642543205346049e-39,2.1873831002807673e-25,7.946954498022222e-29
120426,1.0,1.5442459015795167e-38,3.4578310200476545e-17,9.116531201830646e-25
120427,1.0,2.62771474199764e-29,4.224748364443474e-23,7.720388757641344e-31
120428,1.0,5.510980395762636e-35,5.864766205026439e-23,1.4785985596394428e-29
120429,1.0,8.15445283606101e-30,8.535685721601516e-13,7.934881399967015e-18
120430,1.0,0.0,1.0036862186401594e-26,3.1681693955845803e-27
120431,1.0,0.0,1.2645126278317393e-32,7.092284521972891e-37
120432,1.0,2.575600563287843e-23,1.0875031335541511e-24,9.138724123125311e-22
120433,0.0,0.0,1.263007150176122e-34,1.0
120434,0.0,8.393777801305654e-43,1.6520580043179676e-30,1.0
120435,1.0,0.0,3.708394439803551e-25,2.1117567857374993e-42
120436,3.3007476350137115e-15,2.454852503867967e-24,1.0,4.6926583507911346e-08
120437,8.250180468952339e-34,4.077778531185218e-43,1.0,0.0
120438,2.4299458278864705e-11,1.0,5.16796442811651e-15,2.4600965340437922e-21
120439,1.0,0.0,9.9049368948663e-23,1.8807581912324703e-24
120440,1.0,6.948763702908473e-31,1.211485616362666e-25,3.6589150494031463e-19
120441,1.0,7.675307472933211e-25,1.9943185761129266e-14,2.2955139262160222e-20
120442,1.0,2.1718497910639895e-34,2.5633145865706025e-19,9.159286104475146e-21
120443,1.36609170850162e-31,1.0,4.7599993362040204e-26,6.15662027334613e-37
120444,1.0,4.10084015336069e-34,8.400934189028633e-20,3.126552379091233e-22
120445,1.0,1.2621262186170982e-26,1.0963977621757959e-29,2.996180492728977e-25
120446,5.370883301598901e-37,1.401298464324817e-45,8.651121847386147e-36,1.0
120447,1.0,0.0,5.352960133720801e-43,2.942726775082116e-44
120448,1.0,3.188484271038324e-23,3.865177767060618e-17,7.157009850908886e-18
120449,1.0,9.039139805508712e-24,2.1376445552497058e-15,1.401298464324817e-45
120450,1.367807431027454e-39,2.558099785999923e-33,1.0,0.0
120451,1.0,3.515346204895672e-36,5.855447170272009e-22,4.0953066782087514e-26
120452,1.0,2.0950314648264934e-34,4.906713674916727e-27,3.19291884722442e-28
120453,2.5702874583660424e-33,2.1561681379673458e-39,2.2050223206961895e-29,1.0
120454,0.0,6.58666330171237e-41,8.971810169374204e-31,1.0
120455,1.0,5.10382155771097e-30,3.774238696324214e-20,8.564837260200289e-26
120456,1.0,5.870046861593904e-31,4.2380730625193335e-40,4.308862737301323e-38
120457,1.0741161293736923e-09,1.0,4.8171302423306514e-14,2.886753062824376e-20
120458,1.2550854131028856e-37,1.5464082219760197e-32,8.289928941417686e-27,1.0
120459,1.0,2.359800677496079e-31,2.6168524971112957e-28,5.786990963471018e-28
120460,1.0,0.0,8.123892997115995e-17,3.473296708537954e-33
120461,1.0,4.029107906489164e-34,6.263299411880948e-19,1.1158944396026161e-17
120462,1.0,7.619064648619348e-25,1.5247973408224604e-19,1.6305543208419257e-19
120463,1.0,0.0,6.022535397716188e-32,1.76171242934916e-41
120464,3.846625211185627e-27,8.629368894105086e-28,1.0,7.797724060784202e-32
120465,1.0,0.0,9.237407093533952e-33,7.5756446170745665e-34
120466,6.342499609949662e-26,2.8589445411985994e-39,1.0,5.588962617186994e-39
120467,1.0,0.0,4.203895392974451e-45,2.034204724826371e-39
120468,1.0,2.802596928649634e-45,9.873269089434175e-34,1.5246968070932605e-40
120469,1.0,1.3651273035488467e-32,7.36713629948079e-21,5.245869180989413e-21
120470,1.401298464324817e-45,1.8216880036222622e-44,1.5416153259621662e-30,1.0
120471,4.418538451789189e-12,1.7665394893135567e-16,1.0,4.4752138735233704e-15
120472,1.6398161992614986e-28,2.6081323678055964e-28,1.0,1.4002818222889494e-38
120473,1.0,9.219464895439766e-38,5.731816005681559e-23,2.410142095187692e-20
120474,1.0,1.437617130815539e-31,1.0468655660803336e-20,1.5381866161298236e-20
120475,1.0,1.9026321602859364e-22,6.623490427479248e-20,1.4969537628573293e-20
120476,1.0,4.289897940374812e-33,1.681302205525937e-24,2.313100975514927e-22
120477,1.0,3.523947370983559e-24,4.8748257657807454e-21,2.7874406396871694e-22
120478,3.707687176698214e-25,6.813603151724091e-25,3.466536914200833e-23,1.0
120479,1.0,0.0,6.559023285430968e-27,1.8352767384067826e-33
120480,7.50489527499704e-24,9.189068355146365e-36,1.0,6.439092560434324e-39
120481,8.410593382877552e-42,5.424824732187475e-32,1.0,0.0
120482,1.0,0.0,0.0,2.3794047924235394e-42
120483,3.6560168773704595e-17,1.0,2.4562476471439465e-17,1.0500443147646793e-29
120484,1.928081166946427e-10,1.325709900472545e-15,1.0,3.235321751376605e-17
120485,1.0,3.3085104438438326e-24,8.494556765504069e-18,3.703460132423349e-14
120486,1.7675363417809543e-32,1.6650118688610697e-34,4.5702034921586005e-23,1.0
120487,1.4725951296983474e-33,5.871201287324377e-27,1.3326071923098209e-20,1.0
120488,1.6499326277768786e-26,3.0416103207822527e-18,1.0,1.0576377825760759e-30
120489,1.0,7.701536359929195e-42,2.4226229904731526e-20,5.254940779271891e-29
120490,1.0,4.652905189788649e-28,1.3492437447650503e-17,1.5485277446692176e-24
120491,2.5077361542019147e-37,1.1127849884974454e-28,9.346546278498857e-25,1.0
120492,1.0,2.2891082917308272e-24,3.0594342614875814e-09,2.567301276590621e-16
120493,1.0,0.0,4.799371570195425e-38,3.040236700451932e-36
120494,1.0,1.5181896983807874e-30,9.006739653401102e-34,3.0185996685471955e-31
120495,1.0,0.0,7.187227986020877e-37,5.605193857299268e-45
120496,1.4368799119285347e-12,1.0,3.1493293783845726e-16,4.645572288562593e-24
120497,8.142648841524516e-28,9.134632601377074e-25,1.0,5.773461776895392e-39
120498,1.4660580823023335e-20,1.2485045167138757e-23,1.6299387175204272e-19,1.0
120499,1.0,2.9006878211523713e-43,4.0038569762874345e-27,1.1067085356423951e-31
120500,1.0,8.625610620175135e-22,1.5871074528391038e-13,1.5230075287720488e-18
120501,0.0,0.0,7.222532634407779e-33,1.0
120502,2.532975599879558e-28,3.149794020947984e-26,1.0,7.852204462362892e-31
120503,1.0,1.1134559343418213e-28,8.328183654154594e-20,4.077804640386969e-24
120504,1.0,2.950985899211106e-20,4.47858372609744e-09,5.307241733761014e-13
120505,1.0,0.0,5.790482481867197e-27,8.786973742604412e-39
120506,1.0,1.9696224555492454e-21,2.7421603097671854e-17,4.9584581232609004e-12
120507,2.201084165905138e-26,1.416218933613708e-25,1.0,4.7149725403572645e-30
120508,1.9321093932666428e-13,6.8359554836639e-21,3.37168325621447e-15,1.0
120509,8.568734947977276e-24,3.104201397523521e-20,1.0,1.0160220803493596e-24
120510,1.0,3.816981682667608e-27,2.6189411681359837e-27,3.5849760171941725e-24
120511,1.3020135041176506e-23,3.46260664400327e-26,1.0,1.3157049095759395e-29
120512,1.0,0.0,1.0033605370942633e-34,6.718748081739994e-33
120513,2.012052216549884e-20,1.0,6.970732447575912e-20,2.3996153764550406e-31
120514,1.0,6.049230399523645e-29,4.987552752202929e-22,2.037614504765711e-24
120515,1.0,2.0656374479824647e-34,1.9280952019112774e-22,1.1610864024637435e-24
120516,1.0,2.802596928649634e-44,4.8161762776912396e-36,1.4662960191408555e-31
120517,1.0,4.066407882726102e-29,4.7892570985419436e-12,1.5180556244427093e-16
120518,1.0,1.0749809527598991e-24,7.094819434606944e-17,5.084962948313567e-18
120519,1.0,0.0,5.613601648085217e-41,5.046075770033666e-42
120520,1.0,1.0920161451631623e-27,1.85328125458864e-13,3.6979076972440424e-20
120521,1.0,0.0,1.3150526512705552e-29,5.122463351920941e-39
120522,1.0,7.291591314657687e-36,1.2350916776895114e-19,4.654987466725922e-26
120523,1.0,3.302917373033125e-28,2.934284925361381e-26,3.318456303529246e-25
120524,1.0,4.936920634239977e-28,2.7891628165199267e-15,2.5610300894946112e-17
120525,1.0,9.80908925027372e-45,3.0473270238982495e-16,1.0484495144093435e-25
120526,1.0,2.7456850367508995e-34,1.2826660820475752e-20,5.220339430761572e-20
120527,4.0149841049212797e-38,3.946151763834259e-39,7.678044723977831e-29,1.0
120528,1.0,6.034662736421781e-22,5.118451135692926e-20,1.4267244930696041e-22
120529,1.0,0.0,1.595185323329192e-33,2.257143385653166e-34
120530,1.0,1.1911343949954742e-33,2.8497434540318955e-24,2.7690394335537125e-24
120531,1.0,0.0,2.620428128287408e-43,2.2701035122062037e-43
120532,1.0,1.9383875850604283e-17,2.42450777481323e-21,3.1104917530826604e-15
120533,1.5358531069292136e-35,3.520513752974856e-28,1.0,5.633219826585765e-43
120534,3.651153272950236e-13,3.3897409138025584e-21,1.0,3.8483227469159874e-22
120535,5.707605932755405e-35,2.802596928649634e-44,2.460644692161032e-33,1.0
120536,1.0,0.0,1.7261927194494123e-36,3.04792225079898e-40
120537,1.0,5.878642332467891e-19,5.258939375763129e-26,2.007700702024504e-24
120538,1.0,2.716950048187499e-26,7.324798061491286e-20,6.980592277109374e-16
120539,5.30545611578019e-41,3.013828659161957e-40,1.730759090837159e-32,1.0
120540,1.0,1.8375791611003472e-13,3.112708438305625e-17,5.782237591904775e-16
120541,2.1393850396250587e-20,5.641915028897335e-32,1.0,5.8389085599067585e-33
120542,3.9595564279749584e-17,4.445362780454202e-26,1.0,0.0
120543,1.0,1.9271876844929976e-25,4.386975039311517e-33,8.522102299922495e-28
120544,1.0,9.431422803479155e-34,1.3683408343653246e-22,6.806322705126e-27
120545,2.0830746891332526e-22,6.505455839736331e-25,1.8917980077225034e-22,1.0
120546,1.2657249398490875e-38,4.1800733190809293e-42,3.5555768941288024e-21,1.0
120547,2.287581766993134e-23,1.0,6.512178506207649e-27,1.8274053013567074e-40
120548,1.0,1.0716021351618331e-26,5.87629554391067e-13,8.373446751091297e-21
120549,9.88722521958271e-32,2.2476827367770066e-42,1.1123063637189307e-34,1.0
120550,1.0,0.0,1.4321195080041363e-19,6.056619350125908e-29
120551,1.0,0.0,7.484373660160081e-30,1.3732799997202724e-33
120552,1.0,3.3029577768244404e-19,2.644245770695025e-14,2.9684369162898258e-15
120553,9.434088638341562e-26,1.0,1.3021086175144178e-37,0.0
120554,1.0,1.6490286233074975e-16,6.298427394351814e-18,9.59353412411778e-15
120555,1.0,1.1045415824738387e-22,5.437952555348374e-20,8.685610497102031e-21
120556,1.0599491467737475e-28,2.2288804098280494e-28,1.0,3.235098206707172e-33
120557,1.0,1.2120640732733226e-24,6.2390885300539885e-21,1.4734461370220755e-22
120558,8.175090073492804e-33,1.5104133718463976e-39,1.639199835851611e-32,1.0
120559,0.0,0.0,5.870252712838745e-37,1.0
120560,1.9549147157377837e-20,1.0,2.5160055928863786e-22,3.174424560694251e-34
120561,1.0,3.1906765505509624e-14,6.2015548946137145e-12,6.737145129970257e-12
120562,1.0,2.5258746795240906e-20,5.858864215719899e-15,3.975445326771183e-18
120563,1.0,1.338024353630743e-24,1.2993510581728513e-20,1.6063486845032724e-17
120564,1.0,0.0,2.623481740572871e-26,2.564483678352784e-30
120565,1.0,0.0,2.3451166086516864e-26,9.562732684165337e-30
120566,1.0,1.1538277564973662e-31,3.2554852814732644e-27,7.557169605104697e-27
120567,3.605010483205607e-32,4.7737182937175746e-30,1.0,4.461979293075656e-33
120568,1.0,4.506435731422179e-41,1.9905494290518997e-17,1.6804074598812685e-28
120569,1.0,4.384115188364535e-25,4.132379694418059e-23,3.0011544679859326e-19
120570,8.186101942263658e-19,4.042821817839481e-21,1.0,4.421648081727607e-20
120571,8.677420732510644e-23,3.341701692475297e-26,1.6231155293339958e-24,1.0
120572,0.0,0.0,3.8333920790069696e-41,1.0
120573,1.0,2.318377652119995e-27,1.347034706000727e-10,5.578219122782639e-20
120574,9.125253016809879e-35,1.986272750334755e-38,3.5294156419190567e-28,1.0
120575,3.6696349455983624e-27,5.385480060531565e-26,1.0,3.540418961173827e-28
120576,3.3482483541814485e-33,4.48773033589133e-29,1.0,7.896301151927544e-38
120577,1.0,3.3743099108828584e-29,2.0616747229319066e-22,4.400627746743987e-29
120578,1.0,1.6710745237413895e-28,8.666418452862381e-20,4.3519379218191194e-26
120579,1.0,0.0,2.024668836748962e-30,2.668289609643391e-30
120580,1.0,4.637878602880054e-28,2.842221349756251e-23,3.1440383330252343e-22
120581,2.6624670822171524e-44,7.006492321624085e-45,9.121760178426114e-30,1.0
120582,6.016404891655386e-40,4.6415915288256936e-37,8.011311435636589e-26,1.0
120583,1.0,6.714884210576216e-24,1.7214879244314686e-17,6.27887315486379e-19
120584,1.0,4.117522493681072e-32,3.8661475742902906e-19,1.1248386906845851e-26
120585,1.0,0.0,1.6985698699994394e-27,7.432180123331514e-34
120586,1.0,2.987967314745923e-22,9.366103210211378e-18,1.906958402737139e-19
120587,4.0742086549283736e-26,5.241694753115481e-26,1.0,1.9612153460630439e-31
120588,2.8771567337429953e-19,1.0,8.623733068521388e-15,1.8097817413622923e-19
120589,1.0,2.0826915200241945e-31,3.2329801281694963e-23,1.4321133041495422e-20
120590,1.0,2.8943184913952043e-34,1.7697740037523633e-27,5.1547455011312476e-33
120591,1.0,5.082439466079726e-34,1.1351127344478116e-30,1.2535522404311587e-25
120592,1.0,2.612109784126773e-32,4.305875303672227e-29,5.669252678168363e-31
120593,1.0,3.445204378419709e-39,1.5687949483571852e-19,2.2725214527371294e-27
120594,1.0,2.6624670822171524e-44,1.3132125065457276e-37,1.1302104972555224e-34
120595,1.0,4.536456477098611e-37,1.0175859628966667e-30,1.1544127412610529e-32
120596,1.0,1.1390233607873032e-18,2.233338428972689e-22,7.774942554371315e-17
120597,1.0980454706915247e-24,1.0,1.224823385655684e-23,4.004206002941606e-28
120598,4.302925081011312e-34,9.315785383426936e-34,1.0,4.36644601483613e-42
120599,1.0,5.144435240180185e-32,6.489946676567505e-23,1.429733382742605e-20
120600,1.0,2.6904930515036488e-43,7.183154400174697e-34,2.474522690104365e-38
120601,0.0,4.1831300660099284e-32,4.5633534116117916e-32,1.0
120602,1.0910706150030502e-20,4.438086014385272e-22,1.0,2.613316515926048e-24
120603,1.7571890160236427e-33,0.0,7.481349995918205e-37,1.0
120604,1.0,0.0,6.176844785613845e-24,2.2032981213218595e-37
120605,1.0,0.0,2.315189413764018e-25,8.430424558744677e-38
120606,1.0,0.0,7.579034848177919e-40,5.605193857299268e-45
120607,7.006492321624085e-45,8.305613707124194e-38,3.23024613807094e-29,1.0
120608,0.0,1.983373856175637e-37,1.0,0.0
120609,1.6951388059242188e-20,3.003051404768869e-29,9.094409767111212e-24,1.0
120610,1.0,1.8583387942828035e-21,1.561400431171478e-08,6.755531917254762e-16
120611,1.0,0.0,3.765648568847877e-30,1.401298464324817e-45
120612,1.0,2.94641219004329e-39,4.081227902285175e-24,1.7246841830518834e-30
120613,3.726026848445501e-29,5.826618898006729e-28,1.0,2.759052198311924e-33
120614,3.2650254218768238e-43,8.025236305188227e-42,1.581993122465246e-25,1.0
120615,3.724296689279961e-27,5.747757363091419e-30,1.0,3.33654373652512e-33
120616,1.0,1.4168490025579793e-28,3.267629151356242e-19,1.7640838253043735e-21
120617,1.0,5.931924178924578e-32,7.940520044078187e-24,1.9896226971342968e-25
120618,1.0,9.401876961215399e-38,2.2884222257124438e-21,8.86158886011455e-27
120619,0.0,0.0,7.047914704229527e-38,1.0
120620,1.0,1.1677160233065133e-40,1.1365820647705202e-29,3.743930111712197e-32
120621,1.0,7.159666197355604e-31,4.888360750891714e-22,1.3727795337979498e-22
120622,1.0,3.073818806939088e-38,5.304561668396373e-31,2.1576766432055212e-29
120623,1.0,1.26582371522083e-27,2.1493158623347892e-27,6.802896090568946e-27
120624,1.9062955596478456e-20,3.830924236635608e-21,1.0,2.395253707491112e-23
120625,1.0,6.49067435690612e-41,2.548910205555272e-21,9.411582066937057e-27
120626,1.0,2.5502465653814687e-33,9.639532136090417e-42,3.031587303389958e-35
120627,1.0,6.852218000886737e-29,1.739197530473984e-17,1.06267538823984e-25
120628,1.0,2.245696930989869e-25,7.799779369977706e-24,1.3943371646980416e-25
120629,1.0,1.1175922300092575e-28,4.7659697911296706e-14,1.5865858714237933e-18
120630,1.0,4.598756110422248e-18,1.5193811486735598e-10,3.9242345267406775e-13
120631,1.0,1.690638449269587e-34,2.2950788840996056e-25,2.771078836208935e-24
120632,1.0,3.971174706258697e-24,1.6245907189482817e-23,1.0693915561243243e-21
120633,1.2527211754675083e-24,4.807909662801072e-31,1.0,8.103261166749367e-29
120634,0.0,0.0,4.203895392974451e-45,1.0
120635,9.471763841053957e-35,4.903709631206647e-31,1.0,1.261393543111441e-35
120636,1.0,3.2927313946102356e-18,4.764704603088532e-11,5.3022052894091676e-12
120637,1.0,5.605193857299268e-45,4.8417909952495406e-32,8.69050134982797e-39
120638,1.0516729202461051e-27,1.987398656208145e-34,1.0,4.0990369799568424e-21
120639,1.0,1.401298464324817e-45,1.1981204524705417e-18,3.8128759370639144e-28
120640,1.0,0.0,3.8233275845947027e-31,2.5969517827510043e-37
120641,1.0,7.963377616973102e-20,9.778177501220236e-19,4.1425305041109536e-22
120642,1.0,3.0872146597386477e-40,4.5551790238961734e-32,3.7320324518035494e-20
120643,1.2283447910949639e-26,1.98638958428028e-20,1.0,1.7282316640370515e-25
120644,1.4086835410762635e-29,5.4510510262235384e-43,4.767942105495466e-33,1.0
120645,7.006492321624085e-44,3.100560626312877e-39,8.006857436233346e-32,1.0
120646,1.0,1.3222441772979282e-24,4.976167385109977e-30,1.1766308474365557e-22
120647,1.0,3.00464213034274e-23,9.832633256637045e-20,3.712255532709687e-19
120648,2.007971400289317e-29,1.1193383888378107e-26,1.0,3.8938020558040124e-40
120649,0.0,0.0,4.605731740604236e-40,1.0
120650,2.774791807274584e-24,8.294934541195225e-25,8.901959576217856e-23,1.0
120651,1.0,0.0,4.399024252534581e-18,1.9032652396898223e-28
120652,1.0,1.5611263632703127e-38,1.4952503211290713e-16,1.1719792157101648e-25
120653,1.0,2.219556838522525e-27,7.223715375870299e-11,7.600857183221671e-19
120654,1.0,6.025583396596713e-44,5.531537197605751e-35,4.12944582675505e-32
120655,3.35656416856115e-31,1.4415204145535076e-25,1.0,1.2035879511063749e-29
120656,1.0,4.463836258106705e-41,2.830319300394066e-16,9.393975061311073e-26
120657,1.0,5.727438813733713e-25,6.718264982204635e-17,1.2977283424222891e-17
120658,1.0,7.397712432088145e-38,3.0695223490163425e-28,3.0253480161056616e-28
120659,1.0,1.569605280558353e-31,3.997786830288715e-25,5.76178242128995e-31
120660,1.0,3.783505853677006e-44,1.1996723700727941e-23,3.222112815545171e-28
120661,1.0,4.8728094188152956e-39,6.930760730455377e-24,6.363875275290823e-26
120662,3.529924601616855e-22,4.385092232038697e-22,1.0,3.05697559913379e-26
120663,1.0,1.1124033929744654e-20,7.64257913934308e-19,3.339845087672194e-16
120664,1.0,1.771992354883447e-39,8.105328080784214e-30,1.6153134977661336e-25
120665,1.0,0.0,7.847271400218976e-42,0.0
120666,1.0,5.78489362576158e-28,5.395965901430948e-19,7.883818836358126e-21
120667,1.0,4.331960059629096e-40,5.048304370114854e-31,4.4942508007043526e-32
120668,1.0,8.099505123797443e-43,8.745607818119595e-24,4.209689302921842e-31
120669,1.0,1.2281355695366715e-16,1.4265516545819423e-09,2.1773908630978722e-12
120670,1.0,8.245196395693106e-22,1.1339065346091495e-20,3.621360017636957e-23
120671,1.0,3.822673398478583e-30,4.048372266182655e-16,6.974992169236619e-19
120672,2.269235379781585e-37,1.341384699645418e-35,2.906354193750453e-28,1.0
120673,0.0,0.0,1.0,0.0
120674,1.0,0.0,8.17895874672466e-41,5.147810038543648e-41
120675,1.0,0.0,1.558029561946653e-27,2.221048132654489e-34
120676,4.51155945783312e-27,7.596991962268294e-29,1.0,1.4122332707050123e-31
120677,1.0,2.8293189056371684e-36,3.494367295848306e-22,1.54419731738191e-25
120678,1.0,1.3740669153522252e-24,2.906776003526988e-20,2.019247132876479e-22
120679,1.5507069818581028e-34,7.685490259370027e-36,4.2627728011386654e-24,1.0
120680,5.465904789945381e-41,2.7852208276920064e-41,2.338651653333825e-31,1.0
120681,1.0,2.3735058864081176e-38,8.259957434733857e-23,1.566475735421483e-25
120682,1.9937057979089194e-37,2.1256727362780421e-32,6.756257036774874e-30,1.0
120683,1.0,1.385928686456471e-37,4.81368201413909e-27,4.060093423298061e-32
120684,1.0,0.0,1.1267532352082847e-35,8.127531093083939e-44
120685,1.0,0.0,7.861607035963608e-33,3.2166330928137077e-37
120686,8.407790785948902e-45,1.1322491591744522e-42,4.87690608684978e-37,1.0
120687,1.0,2.6883264656864904e-29,8.204223229259007e-29,6.755890778151414e-24
120688,1.0,7.626694914715518e-37,2.085044656258161e-16,2.1930773412638114e-21
120689,1.0,1.532178247578877e-20,3.137284421499094e-20,4.495218527072096e-21
120690,0.0,4.203895392974451e-45,1.9380841955249122e-25,1.0
120691,1.9112688666030933e-35,5.269084012840175e-39,6.805009202415e-24,1.0
120692,1.0,2.572908223021201e-32,1.292976345141875e-22,1.1677280788045934e-22
120693,1.0,0.0,1.4652433308889155e-33,2.620428128287408e-43
120694,1.0,4.0453034606513363e-22,3.515943766801955e-17,3.501192489502174e-18
120695,1.0,6.007698322126041e-29,3.7510057476751955e-25,3.6418086403164316e-30
120696,1.0,1.4352211251084805e-18,6.868448979894316e-20,2.2119934545301032e-18
120697,1.0,2.618736028823658e-16,1.835680718542676e-09,2.486432067183575e-11
120698,1.0,4.945364874081143e-28,6.395255876381683e-15,7.554335996272063e-22
120699,3.3148824820052516e-21,1.0731007995040807e-31,1.0,3.0009610378584812e-33
120700,1.0,1.1658387984874707e-18,5.1144248558454564e-11,1.9537389216758676e-14
120701,1.0,8.917769358500444e-22,6.870938922785072e-20,1.9685233629625112e-16
120702,1.0,4.7223742104788026e-36,4.993091691717284e-22,1.9959510395606333e-29
120703,6.544441187900172e-23,7.680005240869028e-37,1.0,3.9660200774738047e-35
120704,1.0,9.423449204892337e-32,4.190900596184401e-28,1.3770715917844588e-27
120705,1.0,9.80908925027372e-45,3.1389078341331665e-23,5.698323436836203e-25
120706,1.0,1.7573872166343885e-21,7.12054286982145e-19,1.0149105760609174e-16
120707,1.0,2.147515772305022e-32,5.555253408468712e-16,5.632018814935762e-26
120708,1.0,4.203895392974451e-45,6.530964026885202e-26,8.455931778176854e-31
120709,5.39345552667563e-34,6.163239132773739e-32,1.379902119468145e-25,1.0
120710,1.028303815493617e-33,2.5184727605915423e-30,1.0,1.007172284156671e-34
120711,3.099938357850738e-22,4.8721957165887995e-17,1.0,1.947313032984626e-30
120712,1.0,1.1874300506220206e-37,7.037850556237971e-35,1.2929808734468602e-30
120713,5.77350483933216e-25,7.560507025031201e-29,2.1550936401308888e-29,1.0
120714,4.985819936067699e-42,5.864253179077119e-30,1.0,0.0
120715,3.6211943568468606e-23,2.3742515279603423e-28,1.0,5.492413977279283e-25
120716,1.0,0.0,3.8813574501404185e-32,5.605193857299268e-45
120717,1.0,2.922854839290234e-27,1.9726783159947834e-18,5.209897309503856e-19
120718,2.771600206618769e-40,5.146969259465053e-42,1.5151981150438356e-23,1.0
120719,1.0,0.0,1.0986444239905634e-32,1.5809449274512586e-39
120720,1.0,3.0315341030870334e-32,2.721844267954273e-20,7.983927430932335e-23
120721,1.0,3.086635694655416e-32,2.3395889998916397e-23,4.975347306950732e-24
120722,1.2427575740163466e-19,1.1464583945594665e-21,1.0,2.554635715443855e-27
120723,1.0,1.0015162977648766e-21,5.865474857886965e-18,3.9424906579622238e-19
120724,1.0,1.2356635845431594e-39,2.4979741941177552e-18,9.826759438095359e-25
120725,1.0,4.4842489728365244e-39,2.4377582810990346e-15,8.427838621759434e-26
120726,1.0,0.0,4.080438531982138e-37,9.751077735928215e-38
120727,1.0,6.455375648589778e-39,1.5921071830497595e-28,2.350003588478021e-28
120728,1.0,0.0,1.0108462654192073e-39,0.0
120729,9.892367184865895e-37,2.192097822956204e-37,1.7958111833105345e-30,1.0
120730,4.319082126741951e-41,2.6953684491207277e-38,4.261813546277917e-24,1.0
120731,1.0,0.0,7.722388959731904e-24,1.977621206438692e-33
120732,1.0,0.0,2.907445686804768e-32,4.458295411874887e-37
120733,1.0,4.05186151608753e-39,4.068830822966763e-28,2.972182296286264e-26
120734,1.0,2.190229499739689e-42,9.246736024479888e-36,1.8064943110696777e-31
120735,1.0,1.3941600792915151e-27,2.7210664923320335e-27,5.024720795213177e-27
120736,1.0,2.7314249796465767e-40,3.50633838537163e-33,5.430652604738055e-36
120737,1.9114156137690928e-19,1.0,1.7091523543020618e-26,8.731487233566968e-36
120738,2.5753328140358497e-25,1.892471533835374e-27,1.0,3.983665532659129e-37
120739,1.4303388571114523e-35,4.21454526130332e-41,6.918494699423482e-19,1.0
120740,8.452492206960864e-41,4.008344192277923e-40,1.1492748127817726e-27,1.0
120741,1.0,0.0,3.919899382591027e-30,3.786568926206282e-35
120742,1.0,1.180962917108602e-19,1.113538029512121e-18,2.8237744885688688e-15
120743,1.0,0.0,5.470669204724086e-42,5.324934164434305e-44
120744,1.0,2.6986016594622705e-36,4.1808699014111637e-22,1.1919789389211569e-27
120745,0.0,1.8986000915247334e-38,3.5297078566491344e-30,1.0
120746,6.5629112927420645e-40,2.4236858238962036e-41,1.909319491951676e-24,1.0
120747,9.796477564094796e-42,1.7397428720254755e-38,8.342379988694064e-24,1.0
120748,1.0635855344225362e-42,9.348062055510855e-42,4.581893308512961e-33,1.0
120749,2.961050892327788e-12,2.666053955293485e-13,9.506212483856302e-11,1.0
120750,1.0,4.565483309800267e-37,2.5918717266480674e-24,3.5898298783439974e-26
120751,1.401298464324817e-45,1.1770907100328463e-43,2.1139612860607997e-34,1.0
120752,5.383959654396268e-26,2.4008050794533334e-24,1.0,1.4452301562198259e-27
120753,1.0,2.840866389710345e-40,1.072180622526257e-30,1.376737603946851e-24
120754,1.0,3.937424719157719e-27,1.3460191827722867e-19,1.3194631913052222e-16
120755,3.706798948806728e-31,1.794840972517694e-35,1.0,2.107552890344525e-42
120756,2.6558010854046597e-21,1.0,9.004673931085481e-20,6.546590221989327e-30
120757,1.0,0.0,4.2422263093806134e-36,1.3858841812172441e-42
120758,1.0,0.0,2.5447580112138678e-42,0.0
120759,1.0,5.875819359182227e-26,1.2922682110867667e-19,4.2883534997902984e-21
120760,1.0,1.6364996516007665e-26,1.9354745496261098e-19,3.8912461360503464e-24
120761,1.8959178356932863e-20,3.841468454599133e-17,1.0,2.8004177565654624e-25
120762,1.0,1.9252110948873532e-25,2.328064495504877e-34,4.7368946636441675e-30
120763,1.0,1.1683619613624734e-35,5.968755646893359e-20,3.0440662555638396e-21
120764,1.0,0.0,1.3566033532006528e-32,6.932350740915431e-38
120765,1.0,3.611168298607446e-29,8.289523713861384e-33,2.3293764574764583e-29
120766,1.0,1.6743879321363122e-26,1.0683893006402378e-12,1.2092407325835808e-19
120767,1.0,6.032573871516371e-35,4.2066220763354864e-24,1.271182492801943e-24
120768,1.599221959468846e-29,8.913544205788126e-31,1.0,8.582991021331953e-33
120769,1.0,7.753563769312646e-38,8.403165350201507e-23,4.6107699640955376e-26
120770,1.0,2.6440527969203966e-30,4.532228041706139e-18,5.585404210533444e-24
120771,1.0,3.064038677574638e-26,5.418705344624214e-16,1.9856875138124083e-25
120772,1.0,1.3476104028132324e-21,4.6328860641431e-23,7.585248698653101e-18
120773,1.0,7.547361579248478e-38,6.063870437655334e-24,8.639953273520893e-33
120774,1.0,2.6484540975739043e-43,4.184355824010186e-26,3.507492235932718e-31
120775,1.0,8.796651109799039e-41,1.519484616337269e-26,2.646243692695414e-29
120776,1.0,4.411803691944904e-37,1.2681852777292591e-30,1.1522004021180878e-31
120777,1.931058526347304e-25,3.8528564141103813e-32,1.0,7.0412487772447285e-31
120778,1.0,1.4153114489680652e-43,5.471968332795282e-30,3.939420849248579e-28
120779,1.0,0.0,3.0369086053887725e-37,2.3175327218269517e-31
120780,1.0,0.0,1.852335722545531e-30,2.7998174699612274e-34
120781,1.0,5.2864281866135915e-36,3.566495057223198e-23,3.705604768797705e-27
120782,1.0,0.0,1.3967436934821507e-32,4.418378135924008e-40
120783,1.0,1.401298464324817e-45,3.2965574859206e-30,3.2572110462383145e-35
120784,2.6432534967436073e-17,1.0,5.654541154707983e-17,1.406365564017572e-27
120785,1.0,1.4451607364601664e-24,1.1469984684264745e-10,2.566360110489658e-17
120786,3.5430726133773507e-25,1.2056857630760614e-25,4.887820538943819e-22,1.0
120787,1.0,6.766749448511781e-24,9.90337025295437e-19,1.7439941854100564e-17
120788,1.731344667632584e-08,1.4864117970222687e-17,1.0,7.50730993212892e-14
120789,1.0,1.7542246096423244e-15,1.1997564400290095e-13,1.8789288500133816e-17
120790,1.0,1.3247005088765504e-20,2.134437693257496e-08,7.163907867532154e-14
120791,1.0,2.5814559777039707e-36,1.3444149290467618e-16,1.4629802969592764e-27
120792,1.0,3.872241504335848e-20,7.210124970925488e-16,2.1908203604124182e-13
120793,1.0,0.0,1.0807807789885747e-20,1.5268885505334402e-32
120794,4.310946367253023e-25,1.074865631156317e-25,1.0,4.0178851611128595e-28
120795,1.0,1.3007624461316795e-38,2.4248771122569596e-14,1.8355302317382077e-24
120796,4.4552631141019655e-39,5.809321004597464e-40,3.0313713311918536e-25,1.0
120797,1.0504371845629395e-36,8.41988886443149e-29,1.0,4.540207024412407e-43
120798,1.0,1.1833138765129129e-39,1.8731274281700833e-37,1.0019284019922442e-42
120799,1.9378766404114366e-33,0.0,1.0,0.0
120800,1.0,6.522267027295555e-21,4.3459564636906325e-30,8.112610112181909e-27
120801,1.0,2.6748820640814465e-31,3.618426109382324e-19,2.4438098317014568e-23
120802,1.0,0.0,4.030245289109081e-34,6.482126436273739e-41
120803,1.0,1.0919648677252088e-22,5.227431292823864e-21,1.615799098924599e-19
120804,1.0,7.522339547246442e-27,1.0150750118118747e-20,4.0946758516399034e-14
120805,6.653382073500231e-32,1.0,1.1165731572811059e-29,2.4520733281864958e-39
120806,1.0,4.08556570973603e-28,1.253943511590507e-19,4.217550481999875e-23
120807,9.017289081661768e-20,2.281420605551177e-23,1.0,7.7139355262715555e-25
120808,1.0,4.9126581432453004e-40,6.468821682410111e-28,4.336048414295222e-25
120809,2.329939276917661e-19,4.0637655465419695e-44,1.2063998605469317e-31,1.0
120810,1.0,6.562779450511062e-34,3.6240373523847093e-25,3.5365848595763275e-21
120811,1.0,0.0,1.464936271410796e-25,2.3405459483742429e-29
120812,1.4891993295121234e-16,2.017559727845775e-23,6.234090307358508e-22,1.0
120813,1.0,0.0,1.1560797920845585e-30,1.2923796825363034e-37
120814,1.0,8.06239425458512e-32,2.3207813252881586e-22,9.190972800708925e-26
120815,1.0,0.0,6.597074949302304e-39,5.1661355248160496e-36
120816,8.962182492225828e-27,1.0872631620667829e-23,1.0,1.1222182385040371e-29
120817,2.4999269607488398e-19,4.197884986671674e-13,1.0,1.4823254291534984e-22
120818,4.037713940322732e-24,5.899145086369978e-29,1.9836368945411896e-24,1.0
120819,1.0,2.341622417064744e-25,7.090262631029239e-20,6.546320696338516e-21
120820,1.0,2.802596928649634e-45,3.487262553225711e-26,3.522686487832351e-30
120821,1.0,1.6865187537534903e-39,1.056594631800635e-20,4.898239294271931e-28
120822,1.0,4.344025239406933e-44,1.471363387541058e-43,2.5215591736591345e-22
120823,2.683326570994929e-29,1.0,5.36628215973432e-27,7.194546575536476e-41
120824,3.388853969820681e-33,2.8292636384257354e-40,4.7506222982620533e-33,1.0
120825,3.783505853677006e-44,1.975830834697992e-43,6.121847106594279e-28,1.0
120826,4.753217881106336e-24,1.0,3.044964575554218e-26,5.784467575034199e-38
120827,0.0,0.0,1.3248716460805415e-40,1.0
120828,1.0,4.911974762494374e-35,9.309151494164857e-17,9.105209272903688e-23
120829,4.203895392974451e-45,1.401298464324817e-45,8.219458740422606e-34,1.0
120830,4.1139742639831147e-32,2.4046999772695224e-32,1.0,5.291751416799093e-40
120831,1.0,4.495484583923481e-39,1.6496505683775966e-32,3.4948957560187414e-32
120832,1.401298464324817e-45,7.080761140233301e-42,1.3115099558000018e-30,1.0
120833,1.0,1.562167528029306e-41,7.675746769849806e-25,5.666147526145468e-28
120834,1.0,1.5665302407796531e-24,8.105686751833702e-18,1.5696380586588784e-20
120835,1.0,3.44719422223905e-43,4.18567651121025e-28,1.369884969997006e-32
120836,1.0,3.7095874565057486e-30,1.8041822829527967e-29,1.7350173617272914e-23
120837,1.0,0.0,1.3452465257518244e-43,6.025583396596713e-44
120838,1.374829410948272e-21,2.91725062389331e-28,1.0,3.9351260425944055e-35
120839,1.6364521892913659e-23,1.2772743528133765e-22,1.0,1.031085477942168e-24
120840,2.982226576194504e-38,1.068518647292937e-29,1.0,0.0
120841,1.0,0.0,5.853784204870491e-41,0.0
120842,1.0,2.7695881174441457e-32,2.1319411012510163e-14,2.9684376430875474e-22
120843,0.0,1.7656360650492695e-43,3.1604014328778493e-31,1.0
120844,1.0,5.812124474262468e-20,5.123064024701102e-19,7.288424732758827e-20
120845,1.0,1.0459118380407029e-12,4.295005670562624e-11,9.229621233952656e-11
120846,1.0,1.801033267832072e-36,5.93381941522824e-19,2.658646790679718e-23
120847,2.0909473000863048e-23,1.9044868129162248e-19,1.0,1.487892247012244e-25
120848,1.0423252272843248e-23,1.5057495074937188e-29,1.0,9.120090036052466e-30
120849,1.0,2.6788032781369195e-31,7.555500285295974e-19,4.720512102406326e-24
120850,2.12658344464887e-30,5.637650542241941e-26,1.0,9.785485375366675e-35
120851,1.0,8.946646097420368e-40,5.807573286508718e-30,1.2710873895760087e-36
120852,1.0,0.0,3.326391285690656e-32,8.527986231264183e-36
120853,1.0,0.0,4.0727822970680124e-32,2.561847745306602e-27
120854,1.0,0.0,8.457978597613319e-35,1.401298464324817e-45
120855,8.067528082996019e-18,2.5866132784614773e-27,2.491920886395092e-18,1.0
120856,1.0,0.0,0.0,0.0
120857,2.821531341901107e-10,9.29655320256343e-17,1.0,1.4527160984615536e-17
120858,1.0,0.0,3.4036638762098975e-32,1.000123278457509e-35
120859,1.0,2.5475606081425174e-42,1.1394237189201302e-32,4.146487881294853e-27
120860,1.0,2.6484540975739043e-43,9.06245206856837e-30,1.2212924382783468e-29
120861,1.0,9.116917546458978e-24,1.0165878501889912e-17,1.5992491794213676e-18
120862,1.0,6.525642358784882e-39,5.295580855474997e-25,8.428003542992432e-25
120863,1.0,1.401298464324817e-45,4.4581977828503584e-35,7.402873157354294e-32
120864,1.0,0.0,4.316830094374741e-36,7.006492321624085e-45
120865,1.0,1.6679195138309011e-31,6.875193155522993e-33,9.997396517435209e-33
120866,0.0,0.0,9.979888508266505e-29,1.0
120867,6.280921675095403e-15,1.0,2.1583251721786798e-23,2.272898496029619e-31
120868,1.0,1.0317129674884647e-28,3.3882186429815194e-19,1.7261771497651132e-24
120869,1.0,6.021940020589469e-39,8.744851495495407e-14,5.909678501829477e-24
120870,1.0,0.0,8.07316589706888e-32,5.254869241218064e-43
120871,1.0,2.686472665673407e-35,4.165730082918162e-22,2.22720701744762e-27
120872,1.0416776725969954e-30,3.5958019656195986e-28,1.0,4.5741147702418975e-36
120873,1.0,1.401298464324817e-45,1.8768782382555897e-19,4.117940977287168e-27
120874,1.0,6.57514462833562e-40,6.12873908204772e-21,3.3045506594270953e-31
120875,2.5308804146997435e-20,1.93086213060419e-30,3.017963900550524e-25,1.0
120876,1.0,2.1706152500411413e-12,4.799039312643194e-13,1.3112762557634244e-13
120877,1.0,9.835019206203476e-23,1.6042518514438147e-20,2.6910848715573513e-15
120878,1.0,6.962697918903572e-30,4.7169449720005295e-25,1.6680020106639108e-24
120879,1.0,6.566544044945288e-24,3.278844695753236e-10,2.098850234507222e-16
120880,1.0,0.0,3.2804043877789407e-35,0.0
120881,1.0,1.0198777801514267e-32,4.735976552939044e-21,3.554369646643001e-21
120882,1.0,5.044674471569341e-44,8.441071221102644e-24,2.599401645885203e-28
120883,5.6625770927698174e-30,4.164278956979379e-32,2.826417749184932e-28,1.0
120884,1.0,5.8754305667163634e-36,1.4286437173453386e-34,8.871983662619323e-32
120885,1.0,4.5414121423431e-28,1.4328283832098422e-21,2.0571553782489407e-24
120886,1.0,6.053605680948985e-25,7.782210944580368e-25,1.703463465395133e-26
120887,1.0,1.0474441904093452e-36,1.935763126385695e-26,6.07697420615196e-25
120888,1.6407531340867876e-30,4.403823822285135e-34,1.2233972311422286e-26,1.0
120889,1.0,8.407117086488806e-36,9.235180750726786e-27,2.165312466625908e-21
120890,1.0,1.6134716073241713e-33,6.649344293566716e-18,2.8127250832035684e-21
120891,1.0,3.4101273010257785e-22,3.26662972324471e-28,3.916605894089519e-25
120892,1.0,3.387032982134464e-32,9.626671574803744e-23,4.6753758795467314e-21
120893,1.0,7.523913675248906e-13,2.473894570101387e-12,1.4170756235110105e-10
120894,1.0,5.832558420331942e-20,2.0651008278848156e-20,2.3927212004803446e-14
120895,1.0,0.0,7.138178504029931e-38,1.401298464324817e-45
120896,1.0,1.7830609357711788e-14,4.734168105091043e-22,1.4551954205434953e-13
120897,1.0,3.489373306015227e-41,1.4239384306093614e-25,6.263092526103469e-24
120898,1.0,5.944181998916083e-31,1.7828926681615514e-27,2.77831732526763e-25
120899,1.0,6.726232628759122e-44,4.51625600794963e-14,3.0026812982336772e-24
120900,1.0,4.5208677043062605e-39,8.557841950176846e-20,1.9486397399194724e-26
120901,1.0,7.90645805136904e-16,3.6574400192473933e-13,3.729446764431932e-14
120902,1.0,2.2062603626312213e-28,3.90010444272171e-16,3.404199580510142e-15
120903,3.652448089335661e-17,4.092257353327803e-28,1.0,1.4826139084436747e-37
120904,1.0,1.3147727259387801e-20,6.223796396704034e-16,2.1591545757804025e-14
120905,1.401298464324817e-45,3.124895575444342e-43,1.8077664385793014e-27,1.0
120906,1.0,5.382954505031948e-33,0.0,0.0
120907,1.0,2.49548496609963e-28,7.85123615052769e-26,2.968322408023269e-16
120908,1.0,2.6650781519137757e-35,3.3454505618791722e-19,8.745116610211132e-22
120909,1.0,1.815765716188348e-24,1.4281515897727852e-14,6.894328262398575e-21
120910,1.0,3.274803514373435e-27,1.6968058343347315e-15,1.2633852732856028e-23
120911,1.3837761540826577e-33,2.5761106630546713e-39,4.218264208834255e-28,1.0
120912,1.0,1.823817977288036e-40,6.285203902846361e-25,7.177534531512962e-28
120913,1.0,0.0,1.6481372698641898e-29,5.7869452725061046e-36
120914,1.0,3.8260440527750977e-22,6.688740672444737e-10,2.208259892117284e-17
120915,1.0,4.781650749815573e-41,5.111455789815755e-24,3.405997476999105e-27
120916,1.0,5.384748130731798e-23,1.1233610426592438e-23,5.008274045590295e-23
120917,1.0,4.821086490946075e-20,2.687833115799787e-11,1.9513443595339797e-14
120918,2.9680361757759182e-33,3.0633733594024136e-33,1.0,8.407790785948902e-44
120919,4.598236938782585e-15,1.597824025808097e-16,1.0,5.572160024795688e-19
120920,1.0,0.0,5.053484891268363e-32,1.0587278492180463e-37
120921,1.7107051652477367e-41,1.3032075718220799e-43,4.6066239464127354e-32,1.0
120922,1.0,1.547686541088059e-35,4.586244933498407e-34,4.1677677701398795e-28
120923,0.0,0.0,2.891635433072833e-40,1.0
120924,1.0,2.802596928649634e-45,5.327047322518507e-39,1.0029485472742727e-39
120925,1.2863982931613516e-30,1.0304049932786126e-32,1.0,8.42631716236915e-36
120926,1.0,1.618673228435794e-20,1.9398708126334374e-21,1.235251346165954e-20
120927,1.0,0.0,1.2905958856431565e-42,2.802596928649634e-45
120928,1.0,1.1386334361183518e-16,6.661778550082796e-20,2.8035702811611834e-18
120929,1.0,6.296748842404257e-32,1.4843237084897319e-21,4.5187246875982184e-27
120930,1.0,3.5493630395393896e-25,9.7201858830625e-29,6.171310137502815e-24
120931,2.5127530959412727e-15,8.730930656576303e-19,1.0,3.444111857357187e-18
120932,1.0,1.9718247044987068e-29,1.0863286429257935e-26,7.273674546924343e-28
120933,1.0,0.0,4.689502035424836e-37,0.0
120934,3.203606510185467e-40,3.1545190249801687e-40,2.0686345739929258e-26,1.0
120935,1.0,0.0,9.621315256054194e-42,1.401298464324817e-45
120936,1.0,1.9758448476826353e-40,6.655529459048899e-20,4.608129822290574e-27
120937,1.0,0.0,1.7097570674156502e-28,5.173713847356192e-34
120938,0.0,2.802596928649634e-45,8.457608503318867e-31,1.0
120939,1.0,1.107420615291985e-19,5.977343619901933e-28,9.25531547280273e-20
120940,1.0,3.614270366909555e-21,2.7104291982485082e-14,2.040601896306912e-16
120941,1.0,1.421779786697934e-23,4.6594405358515814e-21,2.958158674400707e-17
120942,4.4568297657850807e-41,4.986853408258643e-35,2.4015225455095887e-29,1.0
120943,1.0,1.0492924202935104e-20,2.1282586359916422e-08,2.3488558320572395e-10
120944,1.0,2.552079235170579e-38,5.696911375815858e-25,1.8902186893199893e-29
120945,1.0,5.431106794991207e-29,1.0033576753176343e-17,1.3958420805239455e-19
120946,1.0,1.7030145451149485e-34,3.041413245001312e-18,8.432266239668493e-21
120947,5.2743850209168286e-20,1.0044207801193496e-20,1.0,6.532294623225941e-23
120948,1.0,6.628585667609883e-38,9.956531191012841e-31,2.886471047229458e-32
120949,1.0,0.0,6.77372263371509e-40,7.283949417560399e-42
120950,1.0,0.0,1.1049238447469862e-24,3.0211969779574575e-35
120951,5.800063912466302e-24,1.0487700631077994e-24,1.0,7.556765930188353e-27
120952,1.0,0.0,3.8759951594827344e-20,7.23931969818826e-36
120953,8.924763065097656e-33,6.311448283318976e-42,1.4085241672583055e-34,1.0
120954,1.0,7.828097109892425e-24,9.448451159841352e-20,8.221255165356822e-13
120955,1.0,0.0,1.649983380215673e-33,1.7169853141285565e-36
120956,1.2414872732277593e-12,2.7943353924671755e-25,1.0,1.2898409271274122e-18
120957,1.0,8.967537576547383e-30,1.5890692744178306e-18,1.0729090174809452e-22
120958,1.0,5.295422875524903e-16,7.592478877592274e-20,9.690237506919022e-21
120959,1.0,4.419455830852408e-35,5.908326394237928e-24,1.3582289056542964e-25
120960,8.831431337683581e-40,1.319848845317481e-34,7.02612285448072e-29,1.0
120961,7.3436545733329694e-09,3.744305755205846e-15,1.0,5.467967658517869e-13
120962,3.695588494281806e-31,2.003247938375778e-32,1.0,3.819799483903019e-41
120963,1.0,2.4307343551717574e-40,6.673250190432575e-27,6.614511414054415e-32
120964,1.0,3.914137144642166e-27,1.69918558980266e-27,1.518864620969572e-26
120965,0.0,0.0,1.401298464324817e-45,1.0
120966,1.0,7.888799012097211e-32,2.7815101893584743e-39,5.744865423081977e-37
120967,1.0,7.381562103050722e-30,2.2695446867324054e-13,5.126032762994857e-20
120968,1.0,1.2656384297323885e-15,7.236322408258819e-14,1.5550594648439323e-21
120969,3.1453277482551556e-11,1.520454977614705e-16,7.652801859215123e-16,1.0
120970,1.0,0.0,4.4085886118728855e-23,1.959113268290186e-32
120971,9.530779153739048e-18,8.357083254584285e-12,1.0,3.7105524938442366e-21
120972,1.0,9.257801445226545e-17,6.911221072822634e-17,2.804603728629882e-21
120973,1.0,1.955932233640067e-32,1.6711661893729912e-14,6.349421838344789e-19
120974,1.0,0.0,7.257995829604148e-33,1.5859472266572668e-37
120975,7.054872897593288e-18,3.702661158488738e-22,2.5130332659697017e-21,1.0
120976,1.0,3.135783944771839e-38,5.061457658295807e-15,5.093784358905718e-23
120977,1.0,1.8357009882655104e-43,1.3087622975142377e-21,8.714418923414199e-28
120978,1.449091137312817e-24,1.0,1.9045038905557543e-24,2.249032974454242e-24
120979,1.0,8.093391426748704e-25,2.2616958761552397e-14,5.411098757147299e-18
120980,1.0,2.803616513412277e-38,1.2293548437001283e-30,8.349995663043461e-30
120981,1.0,2.2122579115988752e-40,3.2687015035176024e-34,1.490128959555556e-34
120982,6.069043541347171e-20,1.2103755048305556e-20,1.0,1.7510034260232035e-21
120983,1.0,4.4033967979899725e-37,5.402686059331263e-32,2.6930156160954233e-30
120984,1.0,4.319687385567761e-10,1.339088108248069e-14,3.4277353226858445e-14
120985,1.0,0.0,6.91453392600603e-20,1.0598787214965965e-31
120986,1.1548899671064094e-22,4.449458233194938e-23,1.0,4.480147367876841e-24
120987,1.0,8.444240971504905e-21,1.6656543084189356e-18,1.7531270837562692e-23
120988,1.0,6.235778166245436e-43,6.566431182369059e-28,5.492014666849332e-33
120989,7.0629152182851865e-28,1.0,3.3552305337403207e-25,7.173789475453986e-34
120990,1.0,0.0,1.493012550362446e-28,2.8070082162153287e-39
120991,1.0,0.0,4.4928162313877135e-37,0.0
120992,1.0,1.272105357509134e-22,2.086288225511268e-10,1.310069198873478e-16
120993,1.0,0.0,7.105049688224768e-34,4.903486364536602e-38
120994,1.0,2.0179959476405836e-33,3.0978807030474648e-15,1.264215915419808e-21
120995,2.6741670767873075e-24,1.0809398897088028e-23,1.0,1.5537324270547362e-27
120996,3.8791075928669427e-13,4.066416803236472e-39,1.0,3.1607841885321565e-33
120997,1.617953219894077e-39,8.173569352830867e-39,1.0,0.0
120998,2.6441193401862287e-33,8.109340560221085e-32,1.0,5.235972832320133e-36
120999,7.726759732287041e-42,0.0,1.5887015348408358e-38,1.0
121000,1.0,0.0,8.338776225559982e-26,3.355460012023743e-33
121001,1.0,1.1280256560779062e-21,1.719321726631613e-25,5.987660601299317e-20
121002,1.0,8.483343996258789e-20,8.95785398982718e-13,3.5496109971147084e-15
121003,0.0,0.0,2.449150623163872e-36,1.0
121004,1.0821163495311951e-22,1.727284473817772e-23,1.0,6.256979248518459e-24
121005,1.0,4.904460547229e-40,1.7091018610411518e-24,1.3129974733713064e-29
121006,5.042782744010624e-30,7.3925427466470685e-25,1.0,4.045309524721357e-34
121007,1.0,0.0,1.0686188342075567e-17,1.0646208208730679e-29
121008,1.0204482674193068e-35,6.653228222730725e-25,1.0,9.80908925027372e-45
121009,1.0,1.5021247725967794e-20,1.5728405719766386e-14,1.9149392900368045e-13
121010,7.027738396740445e-27,1.1590822421694616e-23,2.285576924334169e-22,1.0
121011,3.2818526622519448e-37,3.675556048693511e-30,1.0,1.401298464324817e-45
121012,1.0,0.0,2.634441112930656e-43,0.0
121013,1.0,9.203366446479433e-24,1.263612544112397e-22,1.92186812325208e-22
121014,1.0,9.292544805231953e-25,1.0759738655607975e-09,5.303926548647938e-19
121015,3.5434804656808826e-31,7.191325004267874e-34,6.565589227427131e-25,1.0
121016,5.05868745621259e-43,3.182138617712011e-39,4.3686540692900273e-26,1.0
121017,1.0,2.50762360190926e-40,1.3119843509722368e-24,9.796721135346234e-29
121018,1.8900858621154968e-17,5.609388705941347e-22,1.0,2.485379313162289e-26
121019,1.0,5.881376484613705e-35,6.205075342435862e-10,1.6572439495408027e-18
121020,5.605193857299268e-44,1.4345731371392884e-36,3.632935580136086e-26,1.0
121021,1.0,0.0,6.75529990225466e-31,4.1630273640414965e-38
121022,1.0,3.026142124106868e-22,2.0114797685561597e-13,4.8589174023907315e-20
121023,9.75140507580565e-32,2.1435122956855104e-33,1.0,1.6493282925103097e-42
121024,1.5274153261140506e-43,0.0,3.260961656330282e-41,1.0
121025,1.0,1.650131920912112e-21,7.631176854456852e-22,1.1800931819309422e-20
121026,5.864348347099761e-28,7.635210497415082e-33,1.0,2.7448771713706347e-35
121027,1.0,8.558858477601491e-19,1.4575015037412954e-16,6.545903083220276e-19
121028,1.0,1.1210387714598537e-44,4.667425676235042e-22,1.0193435861241405e-27
121029,3.0797205155514386e-39,7.006492321624085e-45,1.0,0.0
121030,1.0,7.203512057940845e-20,6.434651856485063e-12,1.243334506396054e-14
121031,1.0,7.064088491104764e-39,5.051984828348591e-23,3.28545696996488e-24
121032,1.0,0.0,1.2044160300871803e-41,0.0
121033,7.920251051979438e-24,3.557891266874314e-24,1.7525804410142744e-21,1.0
121034,1.0,6.567815837367201e-40,4.033396337173817e-35,1.3285821140161804e-35
121035,1.0,0.0,5.9428217168533115e-31,7.682772973491885e-40
121036,1.401298464324817e-45,3.822742210678101e-42,2.6262001410364923e-30,1.0
121037,1.0,5.023144578035504e-29,4.5366862867138585e-20,2.6998682439654986e-21
121038,1.0,3.6736440540739404e-41,6.026007086356988e-24,3.8096007728228624e-30
121039,1.0,0.0,1.1191660986129054e-36,1.1911036946760945e-43
121040,1.0,7.057099850204537e-35,2.2188536704779632e-20,2.8011628372311876e-27
121041,1.0,1.3242629729840101e-17,5.149160178102852e-12,4.2612459395086457e-16
121042,1.0,0.0,8.832164348349806e-26,4.4750275881621885e-37
121043,2.1601015827567055e-41,6.65336693783497e-29,1.0,0.0
121044,2.4973207529699337e-11,1.2781633599260597e-19,1.0,6.478982806816725e-17
121045,1.0,8.784147859458402e-34,9.358125298772549e-21,4.0822208316458156e-26
121046,1.0,3.0159284421998273e-24,7.259053084772153e-24,3.4524233681521197e-19
121047,1.0,1.693943208494038e-27,1.4579216493673489e-27,1.1592021963587096e-22
121048,1.0,0.0,5.860956425824369e-33,1.0836812754397255e-38
121049,1.763887917189055e-37,1.3046240039324329e-30,1.1089063498624266e-23,1.0
121050,1.0,5.629547230755203e-19,4.48159904610779e-17,3.4435563289747506e-09
121051,1.0,1.0075335958495435e-42,8.136873940586271e-28,3.5867513825174905e-33
121052,1.6838833978508655e-23,1.2146225402412048e-26,1.0,1.7224276938825977e-24
121053,2.832030492154196e-35,7.1457126092136035e-34,1.0,0.0
121054,1.0,1.5414283107572988e-44,9.620826461338907e-32,2.6618008690719084e-32
121055,1.2137356738098346e-37,6.971958072947147e-27,1.0,8.721681641957661e-42
121056,1.0494642637858819e-28,2.111970925155154e-26,1.0,1.210240083041633e-30
121057,1.6187801716660307e-25,1.0894888834664085e-30,1.0,6.463018404097842e-30
121058,1.0,0.0,1.2091209508898678e-34,1.126607087625727e-35
121059,3.1529215447308384e-43,5.605193857299268e-45,8.054348865619561e-30,1.0
121060,1.0,0.0,1.7376100957627732e-42,0.0
121061,1.4753168181068895e-25,1.0611930270365715e-32,1.992015977861221e-24,1.0
121062,1.0,1.899375269152641e-23,1.180463119072861e-19,5.206693616373218e-21
121063,2.2490840352413314e-42,1.9260513322590716e-37,9.198016002331409e-35,1.0
121064,1.0,7.33652753724033e-39,5.0485995295925874e-21,2.247129058659491e-24
121065,1.0,1.6815581571897805e-44,1.4227559434852681e-31,2.425843447220969e-33
121066,9.877854832984407e-21,8.135551111752109e-25,2.4784531320169202e-15,1.0
121067,1.0,2.898529821517311e-40,3.956581741753352e-32,2.3364894825030015e-27
121068,1.0,1.985597884994336e-40,2.973725568433898e-33,8.344365461485162e-36
121069,3.5282820954873013e-37,4.063104133666808e-37,1.0,1.4293244336113134e-43
121070,1.0,2.2420775429197073e-44,6.242968118573063e-29,2.3510909974135711e-26
121071,1.0,7.044112703926614e-34,6.858133779161839e-20,1.0415372439868609e-25
121072,1.0,1.4118421865556801e-28,8.278598270976072e-16,3.0743714390213976e-22
121073,1.0,2.802596928649634e-44,1.5400874654644638e-22,5.5888915427282964e-27
121074,1.0,0.0,4.4750900860736974e-39,1.401298464324817e-45
121075,1.0,1.1990035091334727e-17,1.7690667656364116e-14,3.742602504297815e-17
121076,1.7277865101267544e-29,3.3832230164430554e-25,3.497504776159745e-20,1.0
121077,1.0,0.0,1.4814002761333848e-27,1.0648320713138429e-29
121078,1.1658717128312248e-15,7.360293622346855e-18,1.0,4.04688162674824e-20
121079,7.543972812601709e-21,1.6976194235718843e-25,1.0,1.0993283119101925e-31
121080,0.0,4.792440747990874e-43,3.62583229933176e-34,1.0
121081,1.0,2.0046655661957704e-36,7.246605091776955e-16,1.2121387389580018e-23
121082,1.0,3.299663838356776e-38,6.477096536712668e-27,1.6909220021902777e-27
121083,5.3913748551608225e-20,9.816363163287752e-21,1.0,7.676888646010114e-25
121084,1.0,0.0,1.576480636813717e-33,0.0
121085,1.0,0.0,8.142952999255158e-37,1.2168386500503129e-27
121086,3.2650840746253466e-36,1.0,7.563491383019506e-33,3.6433760072445244e-44
121087,1.0,3.561301828111947e-23,4.0823036119562743e-16,4.122032898253849e-17
121088,1.0,3.1719521195489375e-36,6.186310529563984e-21,1.043608281196978e-27
121089,1.0,0.0,3.0217172834403777e-34,5.356323250035181e-41
121090,1.0,5.612371325052299e-27,8.21633988648491e-30,5.146325587528186e-22
121091,0.0,0.0,6.820537925791912e-35,1.0
121092,1.0,0.0,3.6566584386535557e-17,1.7391479620732147e-28
121093,1.0,1.5071629356354354e-22,1.3274810463652538e-15,1.4048605567390332e-17
121094,1.0,1.402385466910152e-19,2.638716502245675e-12,2.327580894001405e-15
121095,1.0,1.5096194041678123e-30,1.4676211101979092e-25,2.226260295614503e-23
121096,4.058342203960841e-14,2.0789361590450284e-17,1.0,5.902875730021877e-16
121097,3.847569077052834e-17,1.2246050510452242e-21,8.268082209019568e-25,1.0
121098,1.0,0.0,5.808718604065095e-25,1.1587438399463469e-27
121099,1.2638955447039115e-39,3.54184723382985e-30,1.0,1.401298464324817e-45
121100,1.1161240425755075e-25,1.1210387714598537e-44,4.485814581953582e-36,1.0
121101,1.733913826152167e-29,1.0713885687903e-28,1.0,7.833407661171351e-33
121102,1.0,1.19761295808397e-26,6.976998739830647e-16,3.0708230442198725e-20
121103,1.0,7.063187833668814e-27,3.9928516387703e-16,6.534647352281931e-20
121104,1.0,1.1238413683885033e-42,6.29684168911755e-18,1.1951470410910012e-21
121105,1.0,2.1860256043467146e-43,4.416513008295773e-32,7.788944488704012e-27
121106,1.0,1.7138251129406821e-28,3.4483601329061674e-17,1.7203486698995495e-21
121107,1.4772470082083137e-27,4.2096208597632656e-33,1.0508989852979531e-27,1.0
121108,1.388682832322299e-19,7.524288175844934e-20,6.432638193201094e-16,1.0
121109,1.0,3.3006695608763883e-24,1.3271908035598264e-25,1.282187629364209e-26
121110,2.389608693212364e-12,4.560204752875052e-13,1.0,5.47102604038052e-16
121111,4.893545270978572e-23,1.6077998470814538e-34,3.1028911864924207e-25,1.0
121112,1.0,1.1448364067081577e-37,8.002710524630009e-23,5.056734662010251e-28
121113,1.0,8.969524480876075e-37,4.723903068339073e-22,7.905084140937835e-35
121114,1.3633132959480843e-29,1.1225180365832709e-29,1.0,6.407553584775055e-33
121115,1.0,3.905068036830544e-28,5.58046919137369e-22,8.140534824140099e-21
121116,1.7748848330880127e-20,1.3946218679513947e-21,8.127405452373933e-22,1.0
121117,1.0,0.0,1.3700176386404286e-29,2.1043887584120794e-39
121118,1.0745156624442697e-41,1.7053802310833024e-42,3.2835908898553234e-31,1.0
121119,5.14144091282429e-29,9.967726489007477e-34,3.319972734545138e-27,1.0
121120,1.0,1.0089348943138683e-43,2.7065000675914145e-20,1.491119550931213e-25
121121,1.0,2.802596928649634e-45,2.2013310288320706e-23,3.5717548043339796e-28
121122,1.0,1.401298464324817e-45,6.473123882497782e-26,2.235330049225644e-32
121123,4.777175291632851e-13,1.0,0.0,0.0
121124,1.0789998175301091e-43,7.402818763692145e-39,5.8999299028223156e-30,1.0
121125,1.0,1.4735803380392717e-23,1.52532788778854e-25,9.123741824377864e-23
121126,8.997447230967898e-31,1.2739067378731294e-30,1.0,5.605193857299268e-45
121127,1.0,4.145015315259375e-28,2.634796409514311e-25,3.0226249909163835e-21
121128,1.0,1.4749591538976586e-29,2.371459847647138e-16,2.9627444260459583e-24
121129,5.0317030616335585e-27,2.6888657448788284e-32,1.0,1.506368804088817e-38
121130,1.7651318386989886e-31,2.6310920096009198e-39,2.079701968936946e-28,1.0
121131,7.568598381543482e-26,3.62176362164056e-29,1.0,6.962424828055989e-32
121132,7.254199717534962e-34,4.430881888490015e-36,3.4669195782163464e-31,1.0
121133,0.0,0.0,6.79751769057422e-37,1.0
121134,1.401298464324817e-45,0.0,1.3420851964163076e-36,1.0
121135,1.0,1.0004563393191045e-18,2.1638416764888903e-22,1.3113424338995407e-26
121136,0.0,0.0,1.0254543422838973e-36,1.0
121137,1.0,0.0,9.12853427612873e-33,1.1756894115685215e-42
121138,1.0,1.352290152482753e-38,4.191059611413016e-21,7.791098034227487e-31
121139,1.0,5.64801911087405e-21,5.987138443537643e-19,1.9572065230224385e-19
121140,0.0,0.0,0.0,1.0
121141,1.0,6.029810623387722e-21,3.400294843326594e-14,2.3841041966650726e-16
121142,1.0,2.6158458823090658e-40,1.1132470727706233e-22,6.751509403170999e-32
121143,1.0,1.8797553978123596e-30,1.7525041205550262e-13,7.592065509429229e-22
121144,1.0,4.396840651157281e-34,1.870294946867176e-20,8.04916179461153e-29
121145,1.0,0.0,1.3606115773479736e-29,1.022035400032361e-32
121146,0.0,1.4857967617236035e-41,1.815213949488936e-29,1.0
121147,1.7825458081785672e-27,1.8951980928873146e-24,1.0,4.393372667315867e-33
121148,1.0,0.0,6.798650253122025e-32,6.842310588349932e-39
121149,1.0,2.152706498218864e-33,5.138230869089483e-27,1.147331438782694e-17
121150,2.7314126438068853e-13,1.0,6.882101403585012e-16,2.7541960295458476e-24
121151,1.0234922107524862e-29,1.0,2.3483289442431276e-27,1.1699255907250607e-38
121152,1.0,1.1024877321866343e-36,8.004752254424902e-24,3.328461327782551e-24
121153,1.0,9.80908925027372e-45,5.165836125762047e-30,1.6934269193160542e-34
121154,1.0,5.184804318001823e-44,3.9126855712430816e-29,6.911007844264992e-40
121155,1.0,1.961224372129133e-37,6.427134422918381e-19,9.485199784416304e-23
121156,7.501357662977456e-21,1.0,1.8883631554854469e-25,3.9993974373529572e-28
121157,1.4308660020519171e-38,1.317220556465328e-43,1.0,0.0
121158,3.4929420797056974e-29,6.151877830927346e-37,9.045327434811761e-21,1.0
121159,1.0,4.866446119214028e-21,1.249312902822647e-18,9.984237368342115e-20
121160,1.0,1.5180069634752243e-19,8.776247332844715e-18,2.4348551435011307e-18
121161,1.0,0.0,7.731932031969492e-26,2.0333956124025768e-34
121162,8.879045054754897e-09,4.4857029202205467e-10,1.0,3.714530072418398e-11
121163,1.0,2.0399343474727397e-22,3.9443850299767344e-27,1.861351424103128e-24
121164,1.0,3.775393690708894e-26,3.937590905302554e-19,7.579184357480056e-23
121165,8.778075395536108e-21,1.980670728233752e-26,1.0,5.889027333777761e-29
121166,1.0,1.6232196328022355e-18,2.641414642567952e-09,3.8053978371199726e-14
121167,1.0,0.0,6.359644699646392e-36,0.0
121168,0.0,0.0,1.9493028863118108e-32,1.0
121169,1.1948412198933187e-29,3.8154889180656793e-31,1.0,8.857705336816068e-34
121170,7.303033904479068e-28,1.0,3.219912019286533e-29,4.769424476766278e-37
121171,1.0,6.496834273265913e-30,1.9230853671832722e-22,1.1851532273400203e-23
121172,0.0,1.401298464324817e-45,5.697108015151494e-32,1.0
121173,1.2583930336287172e-30,4.126148466377835e-35,1.0,1.0812684685348e-33
121174,1.0814381988987991e-32,9.138910446154667e-27,1.0,4.919861938390701e-38
121175,1.0,1.956452389890306e-34,6.116383949760893e-36,1.9905767096484698e-35
121176,1.0,5.3878067811196114e-24,2.4355151071944776e-25,2.8947476341977304e-20
121177,1.0,1.9548092950217803e-36,6.631372817870068e-29,1.3351751961498522e-30
121178,1.0,1.993607423559557e-29,2.3564429709244727e-18,8.374227881159647e-25
121179,3.455964638214384e-21,1.8899317622447873e-20,1.0,2.6070695433657863e-27
121180,1.8296053399456974e-40,1.7053802310833024e-41,1.0,0.0
121181,1.0,2.704506036146897e-43,8.925843716339821e-35,1.3254246145078393e-33
121182,1.0,1.0562634133890041e-29,5.2618626858213835e-21,3.142660893532297e-21
121183,1.4550730668989622e-17,5.638525920875297e-21,1.0,5.587602765876295e-23
121184,1.0,1.0202290384346036e-30,6.46926712591271e-20,1.7969550912450813e-23
121185,4.690472998493883e-35,5.410843845305066e-28,1.0,6.340432068131808e-37
121186,1.0,1.923529003081365e-26,1.015260299461293e-21,6.781512317709832e-22
121187,1.0,0.0,2.763851026111053e-40,2.4545143901113496e-41
121188,1.0,0.0,7.803277031812639e-35,2.5699813835717145e-42
121189,2.0126539502974702e-32,1.7253084410818311e-31,1.0,3.9279657123642515e-40
121190,1.0,4.2983798130328525e-27,2.9569741517635313e-17,1.1503069728821697e-17
121191,1.0,1.2555102918055304e-24,1.1522033818552078e-26,2.516126337908684e-25
121192,1.0,0.0,6.0299023079575705e-21,3.656820293403166e-35
121193,1.0,2.3655319376267237e-40,3.436338336601738e-28,6.614122724908701e-35
121194,1.0,1.605191594779471e-39,7.120800004650196e-23,1.950535047577744e-27
121195,1.0,2.970660272369814e-28,5.218476102855429e-32,5.940017532761628e-29
121196,1.505370138787794e-22,1.1558162819861324e-28,1.9916760024768978e-22,1.0
121197,1.0,0.0,0.0,0.0
121198,2.5942751838360975e-32,1.4196853918094513e-26,1.0,3.3501433734565347e-38
121199,1.0,0.0,2.655299397479071e-25,2.2021502242550975e-34
121200,1.0,7.509542775773894e-37,3.0998492648861786e-26,9.226982662694066e-33
121201,1.0,3.734667521580742e-35,5.15176238190143e-16,1.9375952250231916e-26
121202,1.0,1.7587693363466318e-28,2.449918011982842e-20,2.3372851612002257e-25
121203,1.2088518798166262e-14,1.0,1.022516682096671e-29,1.082324095311028e-27
121204,1.0,1.0630514106540421e-27,4.152458110048058e-26,4.2041396572845007e-22
121205,1.0,7.11372095621336e-21,1.3231875718808933e-13,1.386430621966772e-15
121206,1.0,2.2127721954459851e-16,1.7763975013185274e-10,7.294263934184975e-13
121207,1.85047551302093e-33,7.479692747615559e-30,1.0,2.1159606811304738e-43
121208,1.0,0.0,1.6966909568198196e-28,2.1645763211168647e-37
121209,1.0,0.0,4.6277550369393e-34,4.203895392974451e-45
121210,1.5922811517679535e-38,1.9049951973263726e-40,1.0431088817075714e-23,1.0
121211,1.0,0.0,2.520416610712209e-28,3.832046508313396e-30
121212,1.8206392853040268e-34,1.5414283107572988e-44,2.672702793982293e-36,1.0
121213,1.0,0.0,4.108869462063115e-28,1.3997978149204104e-35
121214,1.0,2.0298394205671028e-33,1.2777664758004896e-22,1.729783947743491e-30
121215,1.0,6.839640053375885e-34,5.591810000669524e-28,1.4417360630208202e-31
121216,1.0,0.0,2.688080934799874e-36,6.441348650961887e-41
121217,1.0,3.3090338857952557e-28,4.2497944593802677e-19,1.724321827802124e-23
121218,1.0,3.937648684752736e-43,8.66183701103977e-32,2.8906994840803583e-34
121219,1.0,1.9891967430603566e-26,4.267260171219172e-18,2.11975405487617e-24
121220,1.0,6.7074702622861205e-21,4.188808048403867e-20,5.241399180323473e-17
121221,1.0,6.861991253230418e-17,1.452769231891213e-20,9.849339073836348e-20
121222,1.0,2.4859034757122255e-42,4.5914243175147016e-20,3.0077220208104263e-26
121223,1.0,2.359579912310155e-35,1.0117521734846246e-24,4.364477876635642e-24
121224,1.0,1.642060418403331e-24,3.076781264946183e-19,3.383980053200524e-20
121225,1.0,0.0,6.04911198492472e-30,9.907710385147047e-35
121226,1.0,9.822546050341144e-28,8.369271783131634e-19,1.2014048159057426e-21
121227,1.0,0.0,1.062738149120791e-29,2.374209306848123e-33
121228,1.0,5.431400229745365e-13,2.319423373796283e-14,6.342003338504279e-15
121229,1.0,0.0,1.0113693331405166e-18,3.330878686004157e-29
121230,1.0,3.159357592013528e-28,2.72603316227503e-19,7.449035419617922e-20
121231,0.0,1.2776488687417202e-38,6.982303735274157e-29,1.0
121232,1.0,7.118000564991838e-31,3.418924879789195e-19,9.428545833882088e-19
121233,4.9349668147973515e-40,9.80908925027372e-45,1.223484406332653e-36,1.0
121234,1.0,0.0,7.970383962417162e-31,5.627453203145375e-38
121235,0.0,0.0,1.3847495498506803e-38,1.0
121236,1.0,3.567937410502304e-23,7.050544757756166e-17,6.188296490048322e-20
121237,1.0,6.40609210340605e-24,1.6766348705371517e-22,7.310522314533298e-23
121238,1.0,2.6129734816103054e-27,4.364579955236778e-23,3.417135213141625e-21
121239,1.0,0.0,7.00644187487937e-39,9.095693807279812e-39
121240,1.2072973812535246e-24,4.518212174528858e-25,1.0,1.924461544498761e-18
121241,1.0,4.818198791334272e-13,1.523429243811738e-14,1.3542675104101054e-15
121242,2.894574023663264e-33,3.1529215447308384e-43,1.0,0.0
121243,1.0,4.0285731131910963e-25,1.3804725418203708e-30,2.596715695836512e-28
121244,1.0,7.942423303243518e-14,7.648561929918523e-18,5.887289265001214e-17
121245,1.0,0.0,2.6360309288621137e-34,1.401298464324817e-45
121246,1.0,1.401298464324817e-45,2.733210380975484e-17,6.357959771987451e-32
121247,1.0,1.9420553946997256e-28,7.587309151487289e-24,2.633751415333926e-25
121248,1.0,5.681255002111728e-28,9.030071060542292e-25,2.8996885983611776e-27
121249,1.0,3.216787663545329e-25,1.8802712668387226e-23,1.535273227851275e-20
121250,2.777503619759208e-16,1.1995558693272626e-19,1.0,3.971277577254835e-18
121251,1.0,2.2651010658424225e-30,5.245961307321369e-24,3.5566274624003436e-25
121252,2.214051573633211e-43,1.961817850054744e-44,2.459204749197094e-29,1.0
121253,1.0406414884326778e-29,2.6697039480063115e-38,1.0,5.8714405655209835e-43
121254,1.0,5.55763008560298e-30,2.47186035033364e-17,1.276686147830185e-20
121255,1.1882553502745987e-21,1.0,8.874012679814682e-25,4.993140007148138e-33
121256,1.7772122765929541e-31,7.861505154658368e-21,1.0,2.1218071598395615e-33
121257,8.15928379548081e-13,1.9685289712470643e-18,9.747361236569791e-15,1.0
121258,0.0,0.0,6.293970840456408e-37,1.0
121259,1.0,3.630553975448975e-33,1.5300194354270842e-17,3.7845951985004733e-25
121260,1.0,3.9264382970381374e-42,9.230911544469142e-21,1.1562874499772265e-22
121261,3.5905871848130095e-24,8.577148355230885e-37,1.0,7.519367559566968e-42
121262,1.0,0.0,7.150800952181061e-37,2.802596928649634e-45
121263,1.5532421006983348e-25,3.2271629100822155e-24,1.474430130560812e-22,1.0
121264,4.309533679006042e-39,3.9639930958820425e-41,1.9483403059613688e-28,1.0
121265,1.0,0.0,7.092430572697699e-34,8.274440623273803e-36
121266,7.028052997396861e-29,5.273115250208946e-21,1.0,1.0292633802014641e-29
121267,1.0,1.2245194006682467e-31,5.41230335769553e-23,9.227778113222957e-21
121268,1.0,1.2024464644653987e-27,7.377263930547023e-20,5.916358339316617e-23
121269,1.0,0.0,7.151009974505584e-32,8.69574080478608e-39
121270,1.0,0.0,1.1223076513063381e-30,1.7248274511712022e-39
121271,1.0,1.3666116631760353e-18,1.8414386497838525e-13,3.2909516989787155e-16
121272,1.0,5.150257338627209e-28,8.540096987333023e-21,6.653664558644407e-16
121273,1.0,2.0754617934231344e-28,3.845054404046703e-20,5.946851353316721e-26
121274,1.1203046706459903e-32,2.6295021975790256e-27,1.0,1.4392698411761967e-37
121275,1.0,9.883611775787641e-23,1.2275304384079533e-10,1.642815593212405e-20
121276,1.0,5.342054309819633e-36,3.3978703535603443e-29,2.2114191682099067e-26
121277,1.0,4.619410404580904e-35,1.8258268803590616e-20,1.2527628864878719e-26
121278,1.0,5.0343308004496805e-28,1.6645736744968175e-19,5.1998930769829096e-18
121279,0.0,3.577514979421258e-42,1.2401628868358294e-33,1.0
121280,1.0,0.0,1.177927256786505e-32,1.401657340224647e-35
121281,3.451726526487042e-26,5.891064349215388e-39,1.41166562999313e-34,1.0
121282,1.2841739902989939e-20,4.3737567051218846e-26,1.0,5.643371863809134e-27
121283,1.0,2.955919926799203e-28,2.310755423253218e-29,7.471010740889403e-26
121284,3.385570986971736e-26,4.061363251070537e-32,1.0,2.6233479967752955e-29
121285,1.0,0.0,1.5873635470411292e-37,3.658809908530598e-38
121286,1.977336972466004e-23,2.658796893258382e-32,3.5086753023479505e-28,1.0
121287,1.0,0.0,7.612659688663044e-36,1.102541631730766e-40
121288,1.0,0.0,9.74902411199806e-32,2.1019476964872256e-44
121289,1.0,2.150021641570937e-34,3.2520735350953813e-26,6.4548974978016834e-27
121290,7.517517684164477e-35,1.096401354486532e-30,1.559930280264362e-30,1.0
121291,1.0,4.2834855257295525e-19,1.0055131504987588e-13,1.6843730576976412e-10
121292,1.0,4.13383046975821e-43,3.9186425653138574e-23,6.541248023342806e-30
121293,1.0,2.8322425748495674e-23,1.2433824183969654e-28,3.952841578821361e-24
121294,3.363116314379561e-43,0.0,2.5200385457837923e-38,1.0
121295,1.0,3.5971331579218054e-42,2.897376900403191e-35,1.1692881680796086e-37
121296,4.880397444600389e-25,3.105627721559876e-39,1.0,6.3516648766218355e-37
121297,1.0,1.2799790845500881e-33,2.752184994328777e-20,1.4191143203625008e-22
121298,1.0,2.6310796180867556e-33,3.8987135457595326e-20,4.595525381176537e-27
121299,1.0,0.0,2.758187999130439e-19,4.0049393007679315e-28
121300,1.0,3.908998694337434e-30,2.816260548732629e-26,2.423916446401228e-28
121301,1.0,2.08560850925576e-32,1.0200508182358723e-21,3.941541468209319e-20
121302,1.0,9.703072344607456e-36,1.2690021798675253e-24,3.01375724307887e-30
121303,1.0,0.0,1.4016615704063723e-29,6.797813576650728e-34
121304,8.634072013552565e-37,2.2415150056641888e-37,1.2125821576728265e-24,1.0
121305,1.7739164142473729e-28,7.274564009219256e-35,1.0,3.7704704507157116e-34
121306,1.0,0.0,0.0,1.3732724950383207e-43
121307,1.0,2.410194794904947e-37,1.2559455704618893e-25,5.952072299034466e-33
121308,1.0,0.0,4.598448575913815e-37,0.0
121309,2.0803346068310218e-30,1.374846815290601e-26,1.0,4.6738622531263065e-35
121310,1.0,3.8904784639490396e-22,4.026549838725187e-15,2.5817822338511585e-20
121311,1.0,1.0009474930672168e-41,1.1843438338147262e-16,1.6996726189669967e-26
121312,1.0,2.301505388767795e-25,3.4195917424592775e-18,7.126381343229396e-20
121313,1.5307792898978682e-31,1.6437230986530104e-42,1.0,6.165713243029195e-44
121314,1.0,2.7654178161780938e-17,1.1643025292097617e-23,8.372939941407395e-20
121315,1.0,0.0,2.578253248406624e-39,4.098139397871857e-40
121316,1.0,1.7693155259493208e-34,1.3299999224521764e-23,2.4544037575536464e-31
121317,1.0,1.5128923801085808e-32,1.1974924056642935e-14,5.132973769608522e-22
121318,1.0,9.606041102793054e-41,6.232518820150186e-30,5.598197636219576e-26
121319,7.567011707354012e-44,1.0019284019922442e-42,5.442142614313789e-28,1.0
121320,1.0,3.5092741913290165e-30,8.684834762842273e-24,1.3749449799398664e-28
121321,1.0,3.2176876454324045e-30,8.67382317337315e-21,4.002787699982311e-27
121322,1.0,1.9975917946507427e-26,7.690933131136216e-24,1.7667741752709857e-25
121323,1.1457174439714805e-17,5.2498932046431564e-21,1.0,3.19050375495569e-23
121324,4.274950469374077e-18,1.0,1.3492472003954103e-27,3.4668482955042286e-34
121325,1.0,4.571644852255516e-18,4.231555528883251e-15,4.938250257491446e-16
121326,1.1909915907989485e-40,4.622699783449052e-38,1.663986732911016e-30,1.0
121327,1.0,0.0,5.647782023462151e-21,1.097592319812379e-33
121328,1.0,0.0,1.592230608075805e-33,1.5181667562495068e-41
121329,1.0,0.0,6.943245462227973e-33,1.5139861784629787e-36
121330,3.1433882363529717e-16,3.6937627468933275e-20,1.0,2.8441496940615036e-17
121331,1.0,1.4491928279656507e-36,2.667334963901911e-21,2.7735528066303078e-17
121332,0.0,1.2768631606927733e-41,7.159948718239275e-36,1.0
121333,1.0,1.5839053128290688e-35,3.9204983448161718e-22,4.624835257378019e-30
121334,6.372907693133672e-20,1.3832071508381816e-24,1.0,1.712218550329323e-27
121335,1.0,0.0,7.792001517304738e-28,5.411745164818613e-38
121336,1.0,4.72784780278907e-16,3.033013225880836e-18,1.6099258766930948e-16
121337,2.468073816458229e-31,7.442955122351231e-28,4.593670171379708e-26,1.0
121338,1.0,3.443525210506812e-23,7.593892736856844e-10,5.858551237045888e-15
121339,1.0,2.842537782819453e-29,5.3213132362768336e-27,2.2889360833952175e-22
121340,1.0,3.215911561865487e-28,1.436454919550881e-31,1.0100817851697223e-25
121341,1.0,2.943311782689882e-32,6.850859618422836e-29,1.3036830677243737e-31
121342,1.961817850054744e-43,2.6292533774101578e-33,2.680645917253585e-29,1.0
121343,8.504900769526612e-40,4.340219312777827e-39,5.0790892153443866e-33,1.0
121344,1.0,0.0,1.979956605146509e-30,1.3063686859181525e-35
121345,1.0,0.0,1.1796104688794567e-37,4.854727455795218e-36
121346,1.0,9.0155188109197e-31,2.415197196243808e-18,2.158951054420882e-23
121347,5.4905688937274125e-18,1.0,6.509520722884394e-27,5.724994267636051e-32
121348,1.9823448335091875e-30,3.4305159875393187e-32,1.0,1.9380371918175948e-35
121349,1.0,4.486818754296346e-16,1.3802558047208474e-16,1.7546601560394757e-22
121350,1.0,0.0,3.4678234880283525e-36,3.2524137356979004e-42
121351,1.0,0.0,6.0522051337397e-30,3.890466839698415e-28
121352,1.0,0.0,5.707380918892087e-30,3.5733110840282835e-43
121353,1.0,7.361813139680071e-32,8.233535622482166e-37,7.408038867278982e-33
121354,1.0,1.915332815794799e-29,2.3945135981898337e-23,4.497261161332995e-28
121355,8.450668502875563e-25,5.7851440398794905e-18,1.0307586306824219e-25,1.0
121356,1.0,0.0,4.31088733332258e-37,2.7036481612270373e-38
121357,1.0,2.9215119571113167e-38,3.7145134359289845e-16,2.013711134950484e-27
121358,1.0,0.0,1.4178057153930126e-36,0.0
121359,2.195561300171284e-23,1.010551256443434e-34,1.0,2.497605719187802e-38
121360,1.0,3.7225969463598866e-32,6.7211493200039495e-28,6.312982160509522e-25
121361,1.0,8.19741188912119e-27,1.1857530683371083e-18,1.3442293362959851e-25
121362,1.0,8.016572102901527e-18,1.6462308668652716e-17,1.331477453689518e-15
121363,4.203895392974451e-45,0.0,2.0144077966937143e-37,1.0
121364,1.0,1.1552433178276772e-28,2.3183774778418043e-12,2.3467749252839836e-16
121365,1.0,5.0962340708148304e-30,7.200469920292422e-18,2.0443601222082938e-21
121366,1.0,0.0,4.484155085839415e-44,0.0
121367,3.641636176985103e-18,4.245300021181781e-22,1.0,3.811391788186846e-21
121368,1.0,0.0,1.8519908474951444e-36,8.96831017167883e-44
121369,1.0,2.213788822783831e-28,6.112802296314835e-25,1.2574269033304747e-25
121370,1.0,0.0,1.5134023414708024e-41,1.5031802758864192e-34
121371,1.0,1.1484631465000338e-36,4.540693625643912e-24,2.1014864817800575e-23
121372,1.0,2.037164388717977e-31,7.2194198009454e-18,2.3736171839923957e-21
121373,1.0,2.7257738888207036e-26,2.3615081080078646e-19,2.6373472837058412e-20
121374,1.0,1.162907561819156e-25,4.950974268138273e-19,2.1641866502892745e-16
121375,1.0,8.758020660801453e-33,2.255028689683136e-32,2.563561867437813e-32
121376,1.0,7.514184773118755e-37,3.73711864321847e-20,4.0408315330646397e-29
121377,9.477741762473766e-32,3.647625803379894e-27,1.0,2.9556943522544668e-28
121378,1.0,0.0,1.0494137736064598e-25,4.524255539525551e-37
121379,1.0,1.0509738482436128e-43,2.131164154786505e-22,6.358945742042367e-27
121380,1.0,1.4265865563136515e-32,1.4268373711765322e-24,2.5142648726913953e-25
121381,1.0,0.0,6.429225292500403e-32,2.98618804695315e-38
121382,1.0,0.0,4.6039538109948426e-32,8.061842424971785e-39
121383,1.0,3.584894542253573e-31,1.8383254932082356e-32,2.8038017945892356e-28
121384,1.0,0.0,0.0,0.0
121385,1.0,2.4675943035382324e-23,2.754168733380805e-21,8.415087042514262e-18
121386,1.3658327500411498e-14,7.969099380366496e-18,1.0,2.8172149614073694e-20
121387,1.0,8.407790785948902e-45,5.576822616967726e-32,4.963345911296858e-39
121388,1.0,0.0,1.9099506828501156e-34,2.9050638413764143e-31
121389,1.0,4.084785023506842e-42,3.5987819088743e-27,1.3151673419033762e-30
121390,2.5415350247459207e-41,3.2829620422201814e-41,2.5979159835261027e-27,1.0
121391,1.0,1.7935346125848466e-34,4.1652183436740177e-16,1.3400910405503017e-27
121392,1.0,3.1608692582787376e-25,6.7061788808385e-17,1.6437434249033996e-20
121393,1.0,1.1630906810871612e-23,1.591482089178814e-20,1.243249956507143e-20
121394,1.0,2.0509323809956625e-33,3.325955443324382e-27,2.0323524475404795e-23
121395,1.0,3.2491560016005274e-28,7.347359259186338e-26,4.8201254185498e-22
121396,3.131626487856161e-29,2.0788933278810198e-35,2.0035643309087622e-29,1.0
121397,1.0,7.415989567958334e-39,3.682822161428608e-17,7.625357206677983e-22
121398,7.906033161475534e-09,1.0,4.551008350333543e-18,3.4926880949710164e-22
121399,1.9191509350467784e-36,2.2882126828372644e-36,5.82714061249228e-32,1.0
121400,1.0,5.1310722361737047e-23,1.985005618264455e-14,4.7562892209820906e-14
121401,1.0,1.1798792939768527e-39,7.299319858590435e-23,1.1964127031351884e-25
121402,8.547920632381384e-43,8.552613724695828e-29,1.0,0.0
121403,1.0,0.0,1.715956447164886e-37,1.3708342357103955e-40
121404,1.0,1.011457231549653e-41,6.241892204820016e-23,1.7469542376203022e-28
121405,4.029264845597362e-25,6.948020218200707e-24,3.088001190387341e-25,1.0
121406,1.0,2.1768331160459565e-28,7.406424244338019e-19,7.586644141744188e-24
121407,1.0,4.884417800248138e-26,1.0099480091513388e-23,7.31595723782238e-17
121408,1.0,6.375825443497482e-20,1.8287871200441076e-15,3.137996871643698e-16
121409,1.0,2.628589691971375e-27,3.9281868652162293e-25,4.35291968386757e-25
121410,1.0,5.623410737335491e-42,3.0712128046964444e-33,7.139225858989156e-27
121411,0.0,0.0,2.264141063115993e-31,1.0
121412,1.0,1.401298464324817e-45,1.10452704771166e-25,8.037955567697836e-23
121413,1.401298464324817e-45,7.006492321624085e-45,9.008750972724501e-30,1.0
121414,1.0,0.0,2.691246708686419e-32,6.733103251181645e-37
121415,1.0,7.19542799637856e-15,1.2084305557024945e-17,4.0311126463933686e-16
121416,1.0,6.298129266516812e-36,1.839505898475137e-15,5.449950450665318e-22
121417,1.0,0.0,6.805107978275061e-33,1.1045034495808208e-41
121418,1.0,8.633564917674923e-25,8.847148490392432e-16,2.1375027644879238e-33
121419,1.0,2.2420775429197073e-43,7.2816862725528805e-31,1.4770489985359064e-28
121420,1.0,5.49897818747924e-24,1.1758522107385705e-11,1.663820042028044e-13
121421,1.0661554903433738e-17,1.0,2.741159874317408e-22,1.1326681528859545e-31
121422,1.0,4.5001363143542366e-24,4.056696312204622e-09,2.71173495247626e-16
121423,2.8685248516786237e-24,2.547126693171791e-32,1.0,7.069431301325467e-30
121424,2.9840920914833266e-31,4.956347592048484e-24,1.6741517360879326e-26,1.0
121425,1.0,7.561595469037148e-16,2.685029560816835e-19,3.497945185212444e-20
121426,1.0,4.1494241386806265e-23,5.713664778209369e-19,6.852310196038894e-14
121427,1.0,2.802596928649634e-45,2.5098704007454213e-22,2.8428699046423456e-32
121428,1.0,0.0,1.704845809480172e-36,0.0
121429,3.5762538108033656e-41,7.006492321624085e-45,2.3538190386611968e-26,1.0
121430,1.0,1.0792800772229741e-41,6.461853550691977e-17,1.2998124305828787e-27
121431,1.0,0.0,3.2143456918131793e-18,9.94665042631021e-33
121432,1.0,0.0,5.059030370503961e-28,2.382470878305033e-36
121433,4.890949820134398e-16,2.4436253301164934e-29,3.18815578935739e-23,1.0
121434,1.816851743461756e-26,2.088021681608563e-31,1.0,9.04566812472668e-37
121435,1.0,0.0,2.7644405804009637e-37,1.5052659821973933e-38
121436,2.200038588989963e-43,2.802596928649634e-45,3.6376284414632497e-38,1.0
121437,5.319485105111722e-20,4.750618593668097e-27,1.0,4.617033011237487e-27
121438,1.0,7.347625110944742e-30,3.818206861794238e-11,3.032765627459044e-21
121439,1.0,1.401298464324817e-44,4.263407439736916e-24,3.025349556849617e-27
121440,0.0,0.0,3.3589124189865865e-40,1.0
121441,3.879556007200178e-37,4.175140748486506e-40,3.149147602611382e-32,1.0
121442,0.0,0.0,1.1381268999778688e-36,1.0
121443,1.0,0.0,3.352986014538603e-28,5.6161114296867615e-37
121444,1.0,2.049506830068239e-35,3.1355373364208155e-35,5.642302942033106e-32
121445,1.0,3.908790904697816e-37,7.327985482466571e-27,8.343882340102801e-30
121446,1.0,4.6711939710247415e-18,5.881573846662144e-14,2.9645110090457192e-22
121447,1.0563914849714112e-23,4.325083582978534e-23,6.627827572114378e-23,1.0
121448,1.0,5.5849542639946285e-25,5.241805253741738e-11,3.296361230850642e-12
121449,2.3772597271341483e-21,8.757399059388738e-30,1.1889609011573411e-24,1.0
121450,1.0924823268254613e-09,3.245383907219945e-17,1.0,5.036296190564316e-18
121451,1.0,2.854624341371444e-27,2.0567358023816598e-20,3.2262693452467663e-21
121452,1.0,6.450877480519295e-41,8.528614986103836e-26,8.051047222249186e-26
121453,4.463567170498624e-16,1.4432125695129371e-21,1.0,3.0130813138196963e-21
121454,1.0,0.0,5.114739394785582e-43,0.0
121455,5.220302453734622e-34,3.744236852026886e-36,5.088818247471312e-28,1.0
121456,1.0,1.609250845329716e-23,2.3762479495356767e-18,2.7651197726636333e-19
121457,7.047710650861921e-20,7.586099920442978e-15,1.0,1.033990003052902e-21
121458,1.0,8.881289537044258e-40,1.9694777678502826e-38,4.0915496517135234e-38
121459,1.0,3.68534448779411e-21,3.4974983008865125e-16,4.529987047666071e-23
121460,1.0,4.206697989903101e-41,4.0246090692033766e-33,4.379446549007477e-35
121461,2.067251546510543e-40,5.835847584527133e-41,1.0,0.0
121462,1.0,1.0970765677198993e-41,5.966595413024888e-19,1.8065344905273549e-25
121463,1.0,8.35173884737591e-43,6.015521329189521e-28,6.371792842571134e-34
121464,8.173043025127666e-38,4.333711682709502e-40,1.0,0.0
121465,1.0,0.0,6.642014198241215e-34,3.801628899274004e-31
121466,1.0,1.1209088685353643e-22,2.9087561394965902e-16,1.0683237943926955e-20
121467,1.0,9.673163299234212e-42,2.2775162409526355e-38,4.925838980808494e-36
121468,6.143002638794938e-18,9.690259285790894e-24,1.0,6.727421576942893e-24
121469,1.0,2.4883837739940804e-40,1.801147770732189e-39,1.1218479110576277e-33
121470,0.0,0.0,2.412272958565373e-30,1.0
121471,1.0,1.956820751359559e-24,6.107806646568083e-20,1.5590637177501244e-20
121472,1.0,4.077778531185218e-43,1.7406205762569417e-29,8.862095764875912e-27
121473,1.0,4.541502287336507e-19,2.0762266462305497e-16,4.8223716905110864e-21
121474,8.958046110452145e-12,1.1642122512104617e-18,1.0,5.339047603481174e-18
121475,9.144873778183756e-42,3.1389085600875902e-43,1.594185622571618e-28,1.0
121476,1.0,0.0,5.453399602449747e-38,0.0
121477,9.184826921474855e-21,8.341066387375451e-26,1.0,1.1280236277690618e-32
121478,1.0,1.0016719116224842e-23,1.189118374434058e-26,1.8270345202637201e-25
121479,1.0,1.2310048109274342e-18,5.345147944378427e-23,1.3338538116540751e-19
121480,0.0,0.0,7.1662487543479e-39,1.0
121481,1.0,6.455922154990865e-41,4.808176165614076e-27,7.520615410244256e-35
121482,1.0,0.0,1.1015390983661794e-26,7.132935881016253e-35
121483,1.0,5.311881040092111e-35,2.7421820723897842e-24,1.488026823293038e-27
121484,1.58192879080838e-15,4.606180056419911e-19,2.5765761254812245e-21,1.0
121485,1.0,2.071479263977411e-39,1.3505926088322406e-25,1.6830869638809543e-23
121486,1.0,0.0,7.567011707354012e-43,0.0
121487,1.0,4.300539248630988e-37,5.429715095595568e-23,3.778375954709179e-26
121488,1.0,4.909799188261686e-21,1.9074363738339796e-14,2.589361190910675e-17
121489,1.0,1.4153114489680652e-43,2.166177177715322e-16,2.0750896074613815e-28
121490,1.391941574088981e-38,1.8425000076996228e-35,2.479854178856294e-29,1.0
121491,1.0,6.5235861541903785e-21,4.376405018071364e-21,5.4081627441865276e-20
121492,1.0,1.0411227334918746e-35,6.49655173144375e-33,5.08253929126405e-33
121493,1.0,1.4722850422995944e-27,1.3607492910239216e-10,3.649452206593116e-18
121494,1.0,2.0317006044706225e-40,9.620499527081294e-24,3.2592346939260597e-29
121495,3.629923541987006e-41,2.6531756326196003e-38,6.410653494375264e-27,1.0
121496,2.0365695591002718e-20,2.3016640770633087e-32,1.0,1.890546462401531e-33
121497,1.0,9.960575479179124e-20,9.173975598283923e-13,4.0972434843677655e-19
121498,1.0,5.0504898601962894e-40,3.8426398304256682e-25,6.334792882639912e-24
121499,1.0,9.947604486912697e-32,6.362894559115359e-14,2.444613049875153e-22
121500,3.1708939542280066e-32,3.6011611256903986e-25,1.0011743129546127e-25,1.0
121501,1.0,7.067081752562326e-16,3.677444737615332e-10,1.2757711553845752e-12
121502,2.919822221851553e-28,5.385078423489844e-30,1.0,1.6966487403520944e-39
121503,1.2791254640362778e-17,1.8309365369149247e-23,1.0,1.0941245795570866e-22
121504,1.0,1.0653594924002352e-23,1.0497032066725854e-23,1.2173967592727478e-18
121505,1.0,2.0546732941919398e-35,3.2832902859708003e-16,1.9068629538492687e-20
121506,1.0,1.7032744395690756e-34,4.900272676778297e-22,1.4917312764728254e-21
121507,2.082147372410657e-20,1.0,3.121545636697976e-23,4.556758300556503e-33
121508,1.0,3.4262597044615167e-28,4.900665466400224e-22,4.786857892985258e-26
121509,1.0,3.970773425357757e-35,1.9486242656732594e-19,4.0101492943597913e-22
121510,3.24604736293988e-20,5.71910777204281e-22,1.0,7.902067450661496e-28
121511,1.0,1.1867248439981447e-20,2.5967958850864227e-20,1.6575891681995728e-21
121512,1.0,3.5277896419884503e-34,7.304234222216247e-20,6.306665603329998e-28
121513,1.0,1.9593518855296706e-25,1.0126598507013851e-16,4.1488269520427125e-21
121514,2.794485087794562e-32,5.69539426193743e-31,3.203627228363801e-30,1.0
121515,1.0,0.0,3.5784958883462854e-40,0.0
121516,1.0,1.5959591292198193e-32,6.037360823947513e-13,1.0077400442756104e-21
121517,1.2952267566782107e-38,4.067029652712054e-36,1.0,0.0
121518,1.0,1.0608449337719343e-32,2.9914243682898655e-21,4.160489269717108e-22
121519,1.0,1.9197788961249994e-43,1.24665541596683e-27,1.6090638478916983e-34
121520,1.0,0.0,3.585832660213926e-34,2.4475078977897255e-41
121521,1.0,0.0,4.2932791199828266e-29,1.4302268698223386e-39
121522,5.149117669582618e-28,1.8576613333611226e-18,1.0,1.0089348943138683e-42
121523,1.0,0.0,2.1278146339220342e-32,7.35569589893383e-41
121524,1.0,5.070607332180286e-19,3.475786567565797e-19,8.298546311930055e-13
121525,1.0,1.401298464324817e-45,1.194561098679215e-25,9.431341155983352e-36
121526,1.0,5.956504987499357e-39,6.335300120201969e-24,2.392027413483689e-33
121527,1.0,2.03048147480666e-42,2.324436304640415e-33,1.1367184656085066e-33
121528,1.0,4.105804500471714e-43,2.6796683585472376e-26,7.458936854956446e-26
121529,1.0,9.685774985413136e-42,9.555045983348454e-21,2.381017801337461e-28
121530,1.414225573010108e-27,1.826422701898038e-31,1.0,5.719879746816921e-34
121531,1.0,4.30793358111498e-27,1.2445974251207303e-09,1.7182936837780338e-16
121532,1.0,3.388968350931146e-34,1.9405629388766532e-32,3.15449221149152e-28
121533,1.0,5.576412767119977e-19,1.8987793241817917e-25,1.3216367094358364e-20
121534,2.879668344187499e-42,9.380291920190325e-42,2.6079833489761495e-28,1.0
121535,1.0,0.0,5.780904061881782e-27,1.2779812081800852e-29
121536,1.0,3.981160952677484e-36,2.821200730987008e-23,7.724123664862485e-25
121537,1.0,2.0545181237981496e-26,1.2424471970321578e-15,1.2761810732868647e-18
121538,1.0,2.242753648699392e-31,4.373683384968902e-29,1.3691779753143933e-27
121539,1.0,1.3592595103950726e-43,1.6476754070671777e-25,1.3575766625231336e-32
121540,1.0,2.8155803512851736e-36,1.856485902603048e-25,5.536017828504426e-33
121541,7.318804152372185e-32,1.188986477534709e-34,2.1389686656364717e-35,1.0
121542,3.2380531348787916e-23,3.1134635269755403e-35,3.8634612092769743e-28,1.0
121543,1.0,2.6627361315223028e-39,1.8269499334205627e-26,1.443875903912691e-25
121544,1.0,1.0248007318385853e-37,3.654880588887406e-28,5.855792152950928e-26
121545,1.288249869251025e-22,8.197287088860793e-27,2.3125931985692258e-26,1.0
121546,1.0,0.0,3.1050393217905145e-22,1.410807451495971e-37
121547,3.352710604205567e-32,7.385554011336454e-32,1.0,2.674139113697838e-37
121548,9.670658488056706e-30,3.923635700109488e-44,1.0,2.5643761897144152e-43
121549,2.5475606081425174e-42,1.793114631103662e-37,1.1401541417223724e-32,1.0
121550,1.0,7.93258597376718e-17,3.4556670811545023e-14,3.5579468071673156e-16
121551,1.0,7.1077982144221815e-31,2.0233892218105214e-28,1.0338935666382655e-32
121552,1.0,4.203895392974451e-45,2.354963267845673e-23,2.070192488591901e-31
121553,1.0,0.0,4.327749593155259e-34,4.837842818234998e-41
121554,1.0,2.3002019290110836e-29,4.4676841544352546e-26,7.315289400983549e-24
121555,1.0,3.52170734805789e-29,8.239187673732474e-23,5.898063329638221e-22
121556,1.0,8.407790785948902e-45,3.951988115886233e-36,1.6096990114198181e-38
121557,1.0,2.588140492759128e-29,2.4660107441570917e-25,3.3197590333585086e-26
121558,1.2876404281746742e-15,1.6981652512233487e-23,1.0,6.991678650668293e-31
121559,5.291303001290509e-42,1.3234889747964433e-34,2.5331153882571647e-32,1.0
121560,1.0,0.0,1.561326861592687e-33,1.6114932339735396e-43
121561,1.0,5.513113786039896e-24,1.113869418745025e-18,1.8514400352726902e-21
121562,1.0,2.7060135335260427e-21,1.117391053769058e-22,4.89261307520545e-15
121563,1.7907398928311165e-25,1.6800490417005717e-35,1.354444539017458e-28,1.0
121564,1.350697505231313e-11,1.0,1.3451779659387144e-18,1.90180322524673e-24
121565,1.0,6.123541848678514e-24,1.0614839671544652e-18,7.10809508422725e-24
121566,0.0,1.2541621255707113e-42,2.7971576844037516e-35,1.0
121567,1.0,2.583936074198847e-38,2.8058263645831335e-19,4.8316102235878597e-23
121568,6.0230989005557125e-28,2.1824895434036727e-26,4.180920186560706e-21,1.0
121569,3.0547528558677096e-16,4.041252921173758e-19,1.0,5.3024438112440655e-21
121570,1.0,0.0,1.6371625572048421e-32,5.928350676098079e-32
121571,1.0,6.007200059975304e-27,1.0860573723959345e-22,1.3036227487492807e-17
121572,1.029951343442458e-28,1.0,1.187512394416507e-28,4.374280394290477e-38
121573,1.0,2.540329216441993e-21,5.0713709273222164e-23,4.6783644688827187e-17
121574,1.0,0.0,5.013071266527125e-23,5.8131456698947796e-27
121575,7.039633030305367e-40,1.8415622462905836e-31,1.4866296875075376e-29,1.0
121576,1.0288035644272417e-30,9.034957027950607e-34,1.0,3.613555156233509e-35
121577,1.0,0.0,6.945440514257141e-34,8.082905342189051e-39
121578,0.0,9.80908925027372e-45,5.7331043811228376e-40,1.0
121579,7.930056268319547e-29,1.8193787780203506e-23,1.0,1.1659120477154801e-37
121580,1.401298464324817e-45,3.284703856211337e-39,9.366374717099711e-36,1.0
121581,1.0,0.0,4.142758006404525e-34,4.652310901558393e-43
121582,1.0,1.668055748924184e-28,1.3674790196035888e-23,1.364034576790077e-24
121583,1.0,3.504121718713545e-24,2.2649862841649454e-17,3.126359897030359e-23
121584,1.0,0.0,1.9641128359363784e-16,6.692574201122579e-27
121585,1.0,3.081654580965667e-35,1.948784375753663e-30,5.154654823497025e-30
121586,1.8432468444611763e-26,5.688353447505348e-33,1.0,8.277523709168374e-31
121587,1.0,5.366312267436029e-31,1.4750283369123796e-27,2.5038489428103636e-27
121588,6.62887757046547e-19,3.389332234881169e-18,1.0,5.92090583339658e-20
121589,1.0,0.0,4.044965060207781e-29,1.867000570130873e-36
121590,0.0,0.0,4.1109131297567796e-33,1.0
121591,7.46489506049012e-31,1.0,3.997521581587124e-28,1.5914205415134915e-36
121592,1.0,5.210598527463393e-32,1.7083800217584384e-22,6.284598298027209e-27
121593,1.0,0.0,1.8214589171072368e-34,5.89946653480748e-43
121594,0.0,0.0,2.3495638165244987e-36,1.0
121595,1.0,4.142734807001218e-15,2.2242299373316e-17,1.0727276057462301e-17
121596,1.0,1.6815782879897158e-31,8.042873633343105e-28,3.300475775346128e-27
121597,4.981475910828292e-41,4.022013155233479e-34,5.079099764230691e-29,1.0
121598,1.0,0.0,4.224937355794842e-25,3.177909894611878e-29
121599,0.0,1.2755039011823782e-40,1.0644595543328809e-27,1.0
121600,1.0,3.905514852577642e-28,1.2288225533751545e-19,4.097053685191276e-20
121601,1.0,4.577544621994342e-39,5.394226131417624e-38,2.2624094912901983e-35
121602,1.0,1.177830370396373e-21,1.0924680229106243e-16,2.688745366557035e-15
121603,1.0,6.470743038270881e-29,1.0544136726313637e-25,1.424360008970468e-28
121604,7.297673734719996e-39,2.77639264736676e-41,1.4732292767581923e-34,1.0
121605,1.0,8.051300456624669e-41,0.0,0.0
121606,4.4888914746488325e-40,4.601977875015676e-36,1.3946853405726603e-29,1.0
121607,1.0,3.587324068671532e-43,8.093554484297813e-23,4.3885428974548215e-28
121608,1.8811389076435034e-31,2.3160705806396136e-27,1.0,1.2411109921933757e-38
121609,1.0,2.3661930157758508e-30,2.737380659704949e-27,2.2050728763572297e-29
121610,0.0,0.0,4.203895392974451e-45,1.0
121611,1.0,9.766019694012286e-35,1.1060189318946198e-19,6.927023045856681e-27
121612,1.0,1.7678689692542411e-22,1.19190134673385e-20,1.7862533410959806e-22
121613,1.0,4.90454462513686e-44,2.317575224964246e-25,2.0628699581224368e-30
121614,6.0807354160691855e-31,1.0,5.561750086097528e-28,4.701375405468876e-38
121615,7.15939026812995e-13,3.134770567918757e-21,5.796614917393233e-16,1.0
121616,9.685351979362888e-30,5.545384020554984e-32,1.0,3.4454513845050416e-26
121617,1.0,4.9206654906953653e-32,3.1576009466956767e-19,2.219926783841973e-22
121618,1.502495194927178e-08,1.272575841328638e-15,1.0,1.12848116268216e-11
121619,6.392476916384569e-22,1.750267147430481e-23,1.0,3.3899072183031535e-22
121620,1.1900533993701985e-33,1.5891205511076382e-37,1.0,6.2646851034020685e-34
121621,1.0,2.230264596865449e-40,3.806284797298741e-32,4.7776960568573393e-35
121622,1.0,0.0,8.690737608749055e-38,1.779077319919073e-39
121623,1.0,4.580844679877827e-41,5.217974691771617e-26,1.8058495364315285e-28
121624,1.0,1.1501857795178099e-41,2.6407337391616483e-17,2.7930734018340265e-28
121625,1.1762359179696082e-40,6.345341209015908e-38,1.0,0.0
121626,1.0,1.5371438531833445e-26,8.232479221548592e-27,2.5879015869273164e-23
121627,2.041558621700221e-32,5.7848574929460266e-33,1.0,1.401298464324817e-45
121628,1.0,1.3267517682301262e-38,9.91119331359759e-19,5.013102276156271e-26
121629,6.102560644877776e-37,1.0,5.554415715586111e-35,0.0
121630,1.0,9.339879344198946e-33,7.545977769676554e-16,2.862962080676322e-23
121631,1.0,0.0,7.80109245010623e-38,0.0
121632,8.101881912019694e-26,1.0,2.674776496488494e-26,1.1288785812260098e-35
121633,1.0,0.0,0.0,0.0
121634,1.0,5.688648300013965e-21,3.055506542226638e-11,1.5504255179176244e-16
121635,6.6001157669698884e-43,2.564586384484064e-40,5.112267635231842e-34,1.0
121636,4.6109141765016747e-17,2.7889467329274173e-25,1.0,2.3056156699365075e-27
121637,1.0,4.9223691416030714e-40,1.646691769162961e-29,1.0658073742747427e-29
